ECG
7.9e-5
-0.002602
-0.010107
-0.018944
-0.024165
-0.021797
-0.011282
0.003301
0.013947
0.011337
-0.011606
-0.056659
-0.119041
-0.188595
-0.253039
-0.30202
-0.330411
-0.339574
-0.336188
-0.329238
-0.326483
-0.331835
-0.344604
-0.360685
-0.374973
-0.383729
-0.388796
-0.392965
-0.396134
-0.398245
-0.399291
-0.399309
-0.398368
-0.396566
-0.394029
-0.390908
-0.387386
-0.383679
-0.380057
-0.376826
-0.374306
-0.372783
-0.372462
-0.373405
-0.375499
-0.378455
-0.381853
-0.385212
-0.38806
-0.390002
-0.390769
-0.390229
-0.388368
-0.38525
-0.38098
-0.375673
-0.369438
-0.362379
-0.3546
-0.34621
-0.33731
-0.327992
-0.318339
-0.308436
-0.298377
-0.288266
-0.278222
-0.268376
-0.25887
-0.24984
-0.241408
-0.23368
-0.226751
-0.220706
-0.215613
-0.211522
-0.208463
-0.206442
-0.205444
-0.205429
-0.206335
-0.208087
-0.210605
-0.213805
-0.217605
-0.221911
-0.22663
-0.231673
-0.236956
-0.242402
-0.247937
-0.253491
-0.258996
-0.264393
-0.269622
-0.274627
-0.279357
-0.283773
-0.287849
-0.291566
-0.294911
-0.29787
-0.300433
-0.302597
-0.30436
-0.305721
-0.30668
-0.307252
-0.30746
-0.307332
-0.306902
-0.306205
-0.30528
-0.30417
-0.302908
-0.301513
-0.299992
-0.298344
-0.296566
-0.294661
-0.292644
-0.290542
-0.288389
-0.286215
-0.284039
-0.281862
-0.279663
-0.277421
-0.275123
-0.272773
-0.270381
-0.26797
-0.265569
-0.263206
-0.260894
-0.258632
-0.256406
-0.254197
-0.251997
-0.249813
-0.247659
-0.245556
-0.24353
-0.241606
-0.239798
-0.238107
-0.236532
-0.235075
-0.233744
-0.23255
-0.231509
-0.230636
-0.229949
-0.22946
-0.22917
-0.22907
-0.229141
-0.229363
-0.229717
-0.230195
-0.230782
-0.23146
-0.232207
-0.233014
-0.233893
-0.234866
-0.235964
-0.237217
-0.238632
-0.240172
-0.241746
-0.243213
-0.244405
-0.245114
-0.245193
-0.244658
-0.243632
-0.242269
-0.240673
-0.238819
-0.236521
-0.233457
-0.229218
-0.223364
-0.215429
-0.204905
-0.191247
-0.173916
-0.152453
-0.126597
-0.096405
-0.062326
-0.025167
0.014056
0.054327
0.094835
0.135082
0.174842
0.214038
0.252447
0.289471
0.324136
0.355186
0.3813
0.401339
0.41456
0.420695
0.419935
0.412817
0.40008
0.382539
0.360986
0.336148
0.308691
0.279251
0.248431
0.216794
0.184852
0.153048
0.121756
0.091285
0.061881
0.033731
0.006987
-0.01822
-0.041774
-0.06358
-0.083574
-0.101728
-0.118042
-0.132551
-0.145324
-0.156472
-0.166149
-0.174553
-0.181918
-0.188511
-0.194637
-0.200617
-0.206773
-0.2134
-0.220723
-0.228856
-0.237777
-0.247309
-0.257132
-0.266818
-0.275897
-0.283912
-0.290489
-0.29538
-0.298485
-0.299844
-0.299603
-0.297963
-0.295141
-0.291328
-0.286685
-0.281335
-0.275374
-0.268875
-0.261909
-0.254556
-0.246914
-0.239101
-0.231245
-0.223488
-0.215979
-0.208864
-0.202279
-0.196343
-0.191151
-0.186779
-0.183276
-0.180672
-0.178985
-0.178216
-0.178359
-0.179394
-0.18129
-0.184001
-0.187458
-0.191585
-0.196296
-0.201497
-0.207084
-0.212951
-0.218998
-0.225134
-0.231279
-0.23736
-0.243321
-0.249121
-0.254724
-0.260097
-0.2652
-0.269988
-0.274424
-0.278475
-0.282117
-0.285338
-0.288138
-0.29053
-0.292538
-0.294189
-0.295507
-0.296507
-0.297197
-0.297581
-0.297661
-0.297437
-0.296914
-0.296115
-0.295074
-0.293833
-0.292433
-0.290902
-0.289261
-0.287517
-0.285673
-0.283725
-0.281676
-0.27955
-0.277373
-0.275171
-0.272957
-0.270728
-0.268477
-0.266203
-0.263913
-0.261615
-0.259322
-0.257049
-0.254803
-0.252586
-0.250384
-0.248189
-0.246006
-0.243857
-0.241775
-0.239788
-0.23791
-0.236134
-0.234438
-0.232799
-0.231205
-0.229672
-0.228244
-0.226983
-0.22595
-0.225186
-0.224699
-0.224468
-0.224459
-0.224629
-0.224934
-0.225342
-0.225834
-0.226402
-0.227041
-0.227739
-0.228483
-0.229263
-0.230081
-0.230944
-0.231867
-0.232872
-0.233985
-0.235223
-0.236592
-0.238077
-0.239631
-0.241173
-0.242596
-0.243783
-0.244611
-0.244974
-0.244802
-0.244081
-0.242857
-0.241219
-0.239266
-0.237066
-0.2346
-0.231711
-0.228044
-0.223038
-0.21594
-0.205882
-0.192
-0.173592
-0.150272
-0.122091
-0.089564
-0.053604
-0.015351
0.024074
0.063766
0.103158
0.142007
0.18026
0.217834
0.254395
0.28925
0.321357
0.349461
0.372322
0.388941
0.39873
0.401577
0.397807
0.388064
0.373157
0.353915
0.331112
0.305443
0.277535
0.247975
0.217312
0.186059
0.15469
0.123631
0.093235
0.063783
0.035488
0.008507
-0.017049
-0.041096
-0.063552
-0.084337
-0.103381
-0.120638
-0.136105
-0.149826
-0.161893
-0.172443
-0.181652
-0.189744
-0.196999
-0.203749
-0.210348
-0.21714
-0.22442
-0.232385
-0.241081
-0.250372
-0.259965
-0.269469
-0.278446
-0.286468
-0.29317
-0.298271
-0.301594
-0.303057
-0.302673
-0.300553
-0.296896
-0.29198
-0.286131
-0.279668
-0.272849
-0.265836
-0.258687
-0.251393
-0.243913
-0.236228
-0.228379
-0.220482
-0.212716
-0.205274
-0.198327
-0.192011
-0.186427
-0.181648
-0.177725
-0.1747
-0.172615
-0.171505
-0.171385
-0.172239
-0.174024
-0.176669
-0.18009
-0.184203
-0.188921
-0.194149
-0.199797
-0.20577
-0.211978
-0.218327
-0.224726
-0.231089
-0.237344
-0.243435
-0.249317
-0.254945
-0.26028
-0.265285
-0.269927
-0.274178
-0.278023
-0.281455
-0.284476
-0.287085
-0.289275
-0.291029
-0.292329
-0.293172
-0.293585
-0.293619
-0.293343
-0.292834
-0.292159
-0.291362
-0.290451
-0.28941
-0.288201
-0.286805
-0.285225
-0.283487
-0.281633
-0.279714
-0.27777
-0.275825
-0.273888
-0.271948
-0.269989
-0.267999
-0.265976
-0.263925
-0.261858
-0.259782
-0.257704
-0.255632
-0.253567
-0.251498
-0.249406
-0.24728
-0.245124
-0.242952
-0.240783
-0.238633
-0.236521
-0.234455
-0.23243
-0.230436
-0.228468
-0.226553
-0.224745
-0.223115
-0.221733
-0.220646
-0.219866
-0.219368
-0.219101
-0.219006
-0.219037
-0.219176
-0.219431
-0.219816
-0.220336
-0.220974
-0.22171
-0.22253
-0.223427
-0.22441
-0.225509
-0.226762
-0.228197
-0.229812
-0.231573
-0.233417
-0.235269
-0.237053
-0.238695
-0.24012
-0.241262
-0.242067
-0.242493
-0.242514
-0.242122
-0.241339
-0.240214
-0.238814
-0.237192
-0.23535
-0.233204
-0.230535
-0.22694
-0.221804
-0.214318
-0.203565
-0.188661
-0.168935
-0.144095
-0.114338
-0.080362
-0.043268
-0.004542
0.034526
0.073381
0.111851
0.149844
0.187134
0.223193
0.257155
0.287952
0.314548
0.336171
0.352449
0.363373
0.369134
0.369937
0.365871
0.356901
0.343
0.324321
0.301331
0.274829
0.245843
0.215438
0.184494
0.153574
0.122752
0.092091
0.061961
0.032687
0.00448
-0.0225
-0.048109
-0.07221
-0.094677
-0.115403
-0.134305
-0.15134
-0.166508
-0.179869
-0.191544
-0.201729
-0.210691
-0.218747
-0.226244
-0.233521
-0.240869
-0.248469
-0.256359
-0.26442
-0.272397
-0.279936
-0.286641
-0.292135
-0.296116
-0.298401
-0.298926
-0.29773
-0.294922
-0.290654
-0.285106
-0.278472
-0.270938
-0.26268
-0.253865
-0.244656
-0.235209
-0.225669
-0.216163
-0.206804
-0.197705
-0.188973
-0.180707
-0.172996
-0.16592
-0.159547
-0.153943
-0.149166
-0.145269
-0.142309
-0.14035
-0.139445
-0.139622
-0.140874
-0.143153
-0.146384
-0.150476
-0.15532
-0.160792
-0.166776
-0.173164
-0.179862
-0.186781
-0.193834
-0.200932
-0.207993
-0.214938
-0.221685
-0.22816
-0.234295
-0.240034
-0.245341
-0.250197
-0.254598
-0.258551
-0.262074
-0.265178
-0.267865
-0.270131
-0.271979
-0.273427
-0.274512
-0.275273
-0.275743
-0.275955
-0.275937
-0.27572
-0.275327
-0.274767
-0.274042
-0.273149
-0.272088
-0.270859
-0.269468
-0.267928
-0.266265
-0.264516
-0.262722
-0.260916
-0.25912
-0.257336
-0.25556
-0.253788
-0.252016
-0.250255
-0.248521
-0.246839
-0.245226
-0.243687
-0.242214
-0.240797
-0.23943
-0.238106
-0.236816
-0.235556
-0.234332
-0.233158
-0.232053
-0.231031
-0.230108
-0.229301
-0.228635
-0.228125
-0.227775
-0.22758
-0.227521
-0.227595
-0.227809
-0.228182
-0.228744
-0.229531
-0.230574
-0.231873
-0.233393
-0.235051
-0.236724
-0.238269
-0.239544
-0.24042
-0.240802
-0.240656
-0.240008
-0.238937
-0.237557
-0.235977
-0.234192
-0.232081
-0.229514
-0.226383
-0.222484
-0.217292
-0.209854
-0.198871
-0.182957
-0.161027
-0.132671
-0.098393
-0.05959
-0.018257
0.023496
0.063947
0.102122
0.137859
0.171597
0.203948
0.235242
0.265229
0.29303
0.317347
0.336833
0.350507
0.357928
0.35911
0.354367
0.344217
0.329327
0.310421
0.288204
0.263322
0.236379
0.20794
0.178536
0.148656
0.118736
0.089147
0.06019
0.032108
0.005104
-0.020656
-0.045041
-0.067949
-0.089303
-0.109042
-0.127125
-0.143531
-0.158275
-0.171418
-0.183078
-0.193438
-0.202754
-0.211341
-0.219541
-0.227676
-0.235998
-0.244632
-0.253554
-0.262588
-0.271431
-0.279682
-0.286906
-0.292726
-0.296899
-0.299327
-0.300034
-0.299109
-0.296656
-0.292756
-0.287471
-0.280867
-0.273056
-0.264225
-0.254643
-0.244626
-0.234503
-0.224564
-0.215034
-0.206065
-0.197742
-0.190106
-0.183171
-0.176943
-0.171426
-0.166618
-0.162492
-0.159014
-0.156186
-0.154073
-0.152791
-0.152465
-0.153191
-0.155007
-0.157872
-0.161674
-0.166256
-0.171438
-0.17706
-0.182994
-0.189149
-0.195459
-0.201871
-0.208331
-0.214778
-0.221149
-0.227376
-0.2334
-0.239175
-0.244671
-0.249866
-0.25473
-0.259235
-0.263357
-0.267076
-0.270386
-0.273295
-0.275818
-0.277986
-0.279828
-0.281379
-0.282665
-0.283701
-0.284496
-0.285051
-0.285357
-0.285405
-0.285192
-0.284728
-0.284035
-0.283145
-0.282084
-0.28087
-0.279514
-0.278022
-0.276397
-0.274643
-0.272773
-0.270811
-0.268793
-0.266752
-0.26471
-0.262674
-0.260643
-0.25861
-0.256566
-0.254506
-0.252437
-0.250381
-0.248359
-0.246393
-0.244494
-0.242664
-0.240899
-0.239199
-0.237567
-0.236007
-0.234535
-0.23318
-0.231974
-0.230942
-0.230095
-0.229436
-0.228961
-0.228663
-0.228536
-0.228582
-0.228794
-0.229142
-0.229598
-0.230133
-0.230686
-0.231138
-0.231406
-0.231594
-0.232035
-0.233124
-0.235048
-0.237631
-0.240299
-0.242223
-0.24258
-0.240861
-0.237074
-0.231767
-0.225855
-0.22032
-0.215904
-0.212897
-0.211103
-0.209964
-0.208781
-0.206898
-0.203813
-0.199159
-0.192568
-0.18348
-0.171074
-0.154461
-0.132993
-0.10651
-0.07538
-0.0404
-0.002647
0.036747
0.076812
0.116883
0.156614
0.195868
0.234516
0.272244
0.308411
0.342044
0.371937
0.396856
0.415764
0.427999
0.433357
0.432057
0.424635
0.41181
0.394362
0.37305
0.348569
0.321564
0.292653
0.262442
0.231504
0.200353
0.169436
0.139115
0.109678
0.081346
0.054293
0.028662
0.004578
-0.017839
-0.03848
-0.057262
-0.074148
-0.089153
-0.102341
-0.11382
-0.123732
-0.132247
-0.139565
-0.145918
-0.151577
-0.156862
-0.162129
-0.167741
-0.174028
-0.181245
-0.189525
-0.19885
-0.209043
-0.21978
-0.230626
-0.241091
-0.25069
-0.258995
-0.265669
-0.270498
-0.273418
-0.274516
-0.273999
-0.272153
-0.269298
-0.265735
-0.2617
-0.257332
-0.252671
-0.247679
-0.24229
-0.236461
-0.23021
-0.223631
-0.216891
-0.210198
-0.203769
-0.197802
-0.192447
-0.187801
-0.183922
-0.18085
-0.178613
-0.177228
-0.176715
-0.17709
-0.178358
-0.180501
-0.183462
-0.187158
-0.191489
-0.196356
-0.20167
-0.207339
-0.21327
-0.219381
-0.2256
-0.231853
-0.238066
-0.244165
-0.250086
-0.25577
-0.261173
-0.266259
-0.271
-0.275382
-0.279401
-0.283064
-0.286366
-0.289301
-0.291849
-0.293991
-0.295704
-0.296978
-0.297812
-0.298232
-0.298282
-0.298018
-0.297483
-0.296705
-0.295706
-0.294503
-0.293111
-0.291545
-0.289828
-0.287987
-0.286058
-0.284078
-0.282067
-0.280031
-0.27797
-0.275885
-0.273782
-0.271668
-0.269558
-0.267474
-0.265441
-0.26348
-0.261603
-0.259816
-0.258116
-0.256498
-0.254947
-0.253396
-0.251723
-0.249879
-0.248035
-0.246559
-0.245795
-0.245834
-0.246392
-0.246847
-0.246414
-0.24443
-0.24063
-0.235294
-0.229201
-0.223399
-0.21886
-0.216175
-0.215384
-0.216015
-0.217306
-0.218498
-0.219104
-0.219038
-0.218576
-0.218164
-0.218155
-0.218648
-0.219527
-0.220605
-0.221697
-0.222589
-0.223054
-0.222912
-0.222074
-0.220556
-0.218482
-0.216043
-0.213442
-0.210804
-0.2081
-0.205075
-0.201217
-0.19578
-0.187865
-0.176554
-0.161076
-0.140948
-0.116086
-0.086832
-0.053911
-0.018286
0.019027
0.057152
0.095471
0.13364
0.171482
0.208817
0.245277
0.280198
0.31262
0.341399
0.365378
0.383579
0.395367
0.400521
0.399224
0.391973
0.379453
0.362425
0.341641
0.317805
0.291575
0.263566
0.23435
0.204434
0.174262
0.144207
0.114582
0.085658
0.057691
0.030927
0.005581
-0.018172
-0.040199
-0.060415
-0.078792
-0.095355
-0.110171
-0.123328
-0.134911
-0.144996
-0.153664
-0.161032
-0.167295
-0.17274
-0.177759
-0.182815
-0.188391
-0.194906
-0.202627
-0.211611
-0.221681
-0.232451
-0.243396
-0.25392
-0.263455
-0.27155
-0.277917
-0.28244
-0.285151
-0.286193
-0.285772
-0.284113
-0.281428
-0.277889
-0.273631
-0.268752
-0.263331
-0.257432
-0.251116
-0.244458
-0.237546
-0.230491
-0.223439
-0.216556
-0.210011
-0.203955
-0.198503
-0.193722
-0.189627
-0.186201
-0.183421
-0.181295
-0.179868
-0.179222
-0.179452
-0.180633
-0.182794
-0.185894
-0.189826
-0.194438
-0.199575
-0.205113
-0.210967
-0.217092
-0.223451
-0.22999
-0.236621
-0.24323
-0.249694
-0.255893
-0.261738
-0.267176
-0.272188
-0.276774
-0.280934
-0.284664
-0.287952
-0.290785
-0.293158
-0.29508
-0.29658
-0.297699
-0.298485
-0.298976
-0.299198
-0.299171
-0.298913
-0.29844
-0.297769
-0.296915
-0.295885
-0.294679
-0.2933
-0.291757
-0.289989
-0.287903
-0.285511
-0.28304
-0.280864
-0.27926
-0.278204
-0.277285
-0.275783
-0.272901
-0.26807
-0.261218
-0.25287
-0.244031
-0.235889
-0.229446
-0.225221
-0.223125
-0.222558
-0.222667
-0.22266
-0.222058
-0.220794
-0.219136
-0.217487
-0.216102
-0.215002
-0.214081
-0.213256
-0.212519
-0.211893
-0.2114
-0.211067
-0.210909
-0.210924
-0.21109
-0.21138
-0.211773
-0.212255
-0.212835
-0.213535
-0.214376
-0.215375
-0.216532
-0.217814
-0.219162
-0.220498
-0.22174
-0.222807
-0.223634
-0.224176
-0.224402
-0.224294
-0.223851
-0.223106
-0.222119
-0.220973
-0.219739
-0.218433
-0.216947
-0.214991
-0.21206
-0.207441
-0.20026
-0.189604
-0.174685
-0.15499
-0.130399
-0.101236
-0.068229
-0.032396
0.005136
0.043318
0.081339
0.118688
0.155115
0.190516
0.22475
0.257476
0.288063
0.315608
0.339066
0.35742
0.36987
0.375971
0.375692
0.369372
0.357615
0.341174
0.320833
0.297314
0.271258
0.24324
0.213794
0.183429
0.152632
0.121851
0.091477
0.061839
0.033191
0.005732
-0.020378
-0.045006
-0.068038
-0.089372
-0.108914
-0.126598
-0.142407
-0.156384
-0.168639
-0.179344
-0.188735
-0.197104
-0.204791
-0.212154
-0.219534
-0.227206
-0.235328
-0.243902
-0.252757
-0.261568
-0.269907
-0.277327
-0.28344
-0.287966
-0.290758
-0.291797
-0.291154
-0.288966
-0.285401
-0.280628
-0.27482
-0.268153
-0.260802
-0.252937
-0.244715
-0.236267
-0.22771
-0.219154
-0.210706
-0.202476
-0.194576
-0.187122
-0.180227
-0.173993
-0.168505
-0.163832
-0.160032
-0.157159
-0.155258
-0.15435
-0.154432
-0.155482
-0.157459
-0.160308
-0.163965
-0.16836
-0.173425
-0.179093
-0.185292
-0.191933
-0.198901
-0.206068
-0.213312
-0.220523
-0.227602
-0.234473
-0.241083
-0.247397
-0.253398
-0.259065
-0.264374
-0.2693
-0.273825
-0.277936
-0.281609
-0.284759
-0.287266
-0.289116
-0.290519
-0.291854
-0.293425
-0.295262
-0.297027
-0.298066
-0.29762
-0.295117
-0.290434
-0.284011
-0.276749
-0.269742
-0.263934
-0.259839
-0.257425
-0.256187
-0.255385
-0.254331
-0.252633
-0.250273
-0.247529
-0.24478
-0.242255
-0.23996
-0.237785
-0.23565
-0.233558
-0.231531
-0.229592
-0.22777
-0.226081
-0.224523
-0.223082
-0.221739
-0.220469
-0.219255
-0.21809
-0.216974
-0.215924
-0.214962
-0.214111
-0.213385
-0.212779
-0.212276
-0.211851
-0.211483
-0.211168
-0.210915
-0.210762
-0.210764
-0.210974
-0.211426
-0.212124
-0.213039
-0.214112
-0.215248
-0.216318
-0.217181
-0.217691
-0.21772
-0.217173
-0.216007
-0.214242
-0.211972
-0.209334
-0.206464
-0.203415
-0.200079
-0.19613
-0.190995
-0.183882
-0.173885
-0.160136
-0.14198
-0.119118
-0.091676
-0.060205
-0.025582
0.011168
0.049079
0.087402
0.125679
0.163673
0.201224
0.238059
0.273636
0.307102
0.337351
0.363172
0.383466
0.397441
0.404733
0.40542
0.399945
0.388985
0.37332
0.353717
0.330876
0.305422
0.277936
0.248982
0.219105
0.188818
0.158591
0.128826
0.099852
0.07193
0.04526
0.019987
-0.003784
-0.025967
-0.046491
-0.065292
-0.082333
-0.097608
-0.111149
-0.123026
-0.133359
-0.142315
-0.150117
-0.157036
-0.163385
-0.169509
-0.175774
-0.182525
-0.190044
-0.198507
-0.207939
-0.218191
-0.228959
-0.239809
-0.250236
-0.259736
-0.26788
-0.274366
-0.279035
-0.281876
-0.282996
-0.282577
-0.280845
-0.278022
-0.274301
-0.26984
-0.26476
-0.259148
-0.253066
-0.246563
-0.239693
-0.23254
-0.225219
-0.217881
-0.210709
-0.203898
-0.19763
-0.192053
-0.187269
-0.183334
-0.180267
-0.178067
-0.176734
-0.176265
-0.176657
-0.177907
-0.180001
-0.182906
-0.186569
-0.190911
-0.195843
-0.201273
-0.207108
-0.213244
-0.219577
-0.225998
-0.232345
-0.238428
-0.244149
-0.249633
-0.255198
-0.261124
-0.267428
-0.273744
-0.27937
-0.283472
-0.285385
-0.284888
-0.282332
-0.27856
-0.274663
-0.271631
-0.270058
-0.269989
-0.270973
-0.272292
-0.273262
-0.273457
-0.272812
-0.271567
-0.27009
-0.268629
-0.267214
-0.265737
-0.264105
-0.262307
-0.260373
-0.258328
-0.256194
-0.253976
-0.25167
-0.249273
-0.246794
-0.244252
-0.241673
-0.239092
-0.236542
-0.234052
-0.231641
-0.229314
-0.227069
-0.224907
-0.222831
-0.220853
-0.218986
-0.217242
-0.215633
-0.21417
-0.212857
-0.211694
-0.210676
-0.209807
-0.209095
-0.208551
-0.208176
-0.207962
-0.2079
-0.207978
-0.208183
-0.208504
-0.208934
-0.209467
-0.210111
-0.210879
-0.211786
-0.212838
-0.214027
-0.215325
-0.216681
-0.218022
-0.219244
-0.220227
-0.22085
-0.220994
-0.22056
-0.219498
-0.217828
-0.215648
-0.213111
-0.21037
-0.207507
-0.204451
-0.200895
-0.196257
-0.189707
-0.180281
-0.167053
-0.149311
-0.126713
-0.099385
-0.067897
-0.033119
0.003992
0.042612
0.082173
0.122362
0.16299
0.203787
0.244223
0.283402
0.320085
0.352841
0.380284
0.401323
0.415322
0.422151
0.422123
0.415849
0.404098
0.387665
0.367295
0.343675
0.317462
0.289303
0.259823
0.229597
0.199134
0.168864
0.139137
0.110235
0.082385
0.05577
0.030548
0.006869
-0.015132
-0.035351
-0.053731
-0.070267
-0.084998
-0.098004
-0.109402
-0.119345
-0.128016
-0.135629
-0.142432
-0.148713
-0.154807
-0.161081
-0.167901
-0.175589
-0.184361
-0.194284
-0.205251
-0.216983
-0.229053
-0.240944
-0.25212
-0.262102
-0.270516
-0.277125
-0.281838
-0.284705
-0.285879
-0.285569
-0.284001
-0.281385
-0.277893
-0.273649
-0.26873
-0.263179
-0.257022
-0.250311
-0.24314
-0.235649
-0.22802
-0.22046
-0.213184
-0.206397
-0.200273
-0.19493
-0.190431
-0.186808
-0.184032
-0.181997
-0.180623
-0.180011
-0.180486
-0.182409
-0.185912
-0.190738
-0.196234
-0.201507
-0.205713
-0.20836
-0.209504
-0.209751
-0.210065
-0.211436
-0.214528
-0.21947
-0.225854
-0.232914
-0.239816
-0.245943
-0.25104
-0.255211
-0.258786
-0.262077
-0.265185
-0.268018
-0.270459
-0.272465
-0.274045
-0.275209
-0.275961
-0.276316
-0.276294
-0.275932
-0.275272
-0.274362
-0.273249
-0.271974
-0.270573
-0.269071
-0.267482
-0.265815
-0.264081
-0.262299
-0.260488
-0.258658
-0.256811
-0.254936
-0.253019
-0.251038
-0.248979
-0.246839
-0.244634
-0.242398
-0.240162
-0.237952
-0.235784
-0.233665
-0.2316
-0.229585
-0.227616
-0.22569
-0.223814
-0.222006
-0.220296
-0.218709
-0.217266
-0.215989
-0.214897
-0.213994
-0.213272
-0.212716
-0.212303
-0.212015
-0.211847
-0.211803
-0.211889
-0.212117
-0.212488
-0.212997
-0.213632
-0.214374
-0.215207
-0.216111
-0.21706
-0.218027
-0.218992
-0.219945
-0.220881
-0.221794
-0.222675
-0.223499
-0.224225
-0.224794
-0.22513
-0.225154
-0.224811
-0.224077
-0.222974
-0.221572
-0.21996
-0.218224
-0.2164
-0.214415
-0.212034
-0.208819
-0.204113
-0.197088
-0.186857
-0.172608
-0.153754
-0.130072
-0.101779
-0.069474
-0.033986
0.003824
0.043258
0.083848
0.12531
0.167396
0.209693
0.251458
0.291572
0.328623
0.361108
0.387689
0.407398
0.419759
0.424788
0.422905
0.414791
0.401251
0.383101
0.361115
0.336031
0.308564
0.279395
0.24913
0.218292
0.187318
0.156563
0.126323
0.096845
0.068337
0.040991
0.014987
-0.009506
-0.032342
-0.05341
-0.07263
-0.089962
-0.105408
-0.119021
-0.130902
-0.141204
-0.15012
-0.157896
-0.16483
-0.171278
-0.177629
-0.184279
-0.191587
-0.199829
-0.209144
-0.219487
-0.230625
-0.242154
-0.253565
-0.264312
-0.273891
-0.2819
-0.288089
-0.292357
-0.29474
-0.295379
-0.294435
-0.292018
-0.288239
-0.28335
-0.277796
-0.272042
-0.266336
-0.260569
-0.254269
-0.246758
-0.237422
-0.226011
-0.212835
-0.198766
-0.18502
-0.172817
-0.163043
-0.156038
-0.151563
-0.148984
-0.147555
-0.146705
-0.146208
-0.146183
-0.146965
-0.148851
-0.151908
-0.155983
-0.160864
-0.166396
-0.172464
-0.178941
-0.185701
-0.192628
-0.199618
-0.206578
-0.213429
-0.220106
-0.226557
-0.232737
-0.238594
-0.244081
-0.249154
-0.253773
-0.257908
-0.261537
-0.264646
-0.267239
-0.269332
-0.270944
-0.272095
-0.272813
-0.273129
-0.273084
-0.272728
-0.272102
-0.27124
-0.270171
-0.268924
-0.267522
-0.26598
-0.26431
-0.262526
-0.260647
-0.25869
-0.256674
-0.254611
-0.252516
-0.2504
-0.248274
-0.246143
-0.244008
-0.241866
-0.239723
-0.237578
-0.235429
-0.233279
-0.231139
-0.229022
-0.226938
-0.224892
-0.222889
-0.220935
-0.219048
-0.217246
-0.215543
-0.213945
-0.212455
-0.211073
-0.209798
-0.208625
-0.207558
-0.206615
-0.205832
-0.20525
-0.204905
-0.204814
-0.204977
-0.205383
-0.206008
-0.206822
-0.207795
-0.208901
-0.210115
-0.211409
-0.212758
-0.21415
-0.215587
-0.217076
-0.21862
-0.220198
-0.221762
-0.223243
-0.224566
-0.225654
-0.226448
-0.226909
-0.227031
-0.226837
-0.226365
-0.225664
-0.224797
-0.223817
-0.222733
-0.221455
-0.219725
-0.217076
-0.212825
-0.206134
-0.19613
-0.182034
-0.163335
-0.139912
-0.112062
-0.080394
-0.045654
-0.008547
0.030381
0.070747
0.112224
0.154366
0.19645
0.237406
0.275868
0.310335
0.339404
0.361973
0.377389
0.385485
0.386518
0.381048
0.369808
0.353587
0.33316
0.309275
0.282667
0.25405
0.224071
0.193281
0.162139
0.131025
0.100251
0.070087
0.040765
0.012492
-0.01455
-0.040196
-0.064302
-0.086744
-0.107421
-0.126259
-0.143228
-0.158355
-0.171744
-0.183576
-0.194093
-0.203613
-0.212474
-0.220956
-0.229292
-0.23777
-0.246761
-0.256586
-0.267258
-0.27832
-0.288839
-0.297592
-0.303395
-0.30546
-0.303653
-0.298529
-0.291165
-0.28281
-0.274504
-0.266795
-0.259658
-0.252622
-0.245058
-0.236477
-0.226721
-0.215999
-0.204791
-0.193615
-0.182795
-0.172438
-0.162558
-0.153214
-0.144529
-0.136626
-0.129616
-0.123593
-0.11863
-0.114793
-0.112133
-0.110687
-0.110472
-0.111483
-0.113689
-0.11703
-0.121421
-0.12675
-0.132888
-0.139691
-0.147019
-0.154741
-0.162726
-0.170852
-0.179014
-0.187118
-0.195075
-0.202798
-0.210199
-0.217208
-0.223774
-0.229859
-0.235442
-0.240511
-0.245073
-0.249142
-0.252738
-0.255889
-0.258619
-0.260945
-0.262876
-0.264417
-0.265565
-0.266316
-0.266673
-0.266656
-0.266303
-0.265657
-0.264764
-0.263668
-0.262404
-0.260989
-0.259426
-0.257717
-0.255882
-0.253959
-0.251987
-0.250002
-0.248026
-0.246071
-0.244133
-0.242208
-0.240295
-0.238396
-0.236528
-0.234724
-0.233016
-0.231424
-0.229942
-0.228559
-0.227258
-0.226022
-0.22484
-0.22371
-0.222638
-0.221634
-0.220704
-0.219848
-0.219069
-0.218371
-0.217763
-0.217245
-0.21682
-0.216495
-0.216288
-0.216234
-0.216378
-0.216754
-0.217371
-0.218206
-0.21919
-0.220204
-0.221087
-0.22167
-0.221802
-0.221371
-0.220332
-0.218703
-0.216572
-0.214084
-0.211399
-0.208634
-0.20578
-0.202643
-0.198806
-0.193633
-0.186308
-0.175966
-0.161853
-0.143474
-0.120651
-0.093482
-0.062234
-0.027232
0.011199
0.052717
0.096874
0.142978
0.189979
0.236438
0.280621
0.320689
0.354963
0.382158
0.401531
0.412927
0.416702
0.413586
0.4045
0.390404
0.372197
0.350699
0.326639
0.30064
0.273221
0.244823
0.215832
0.186599
0.157443
0.128638
0.100424
0.073016
0.046613
0.021402
-0.002443
-0.024778
-0.045488
-0.06449
-0.081735
-0.097203
-0.110917
-0.122944
-0.133328
-0.142115
-0.149494
-0.155922
-0.16209
-0.168676
-0.176105
-0.184422
-0.19329
-0.20214
-0.210412
-0.217798
-0.224356
-0.23047
-0.23665
-0.24327
-0.25035
-0.257488
-0.263961
-0.268952
-0.271813
-0.272264
-0.270446
-0.266833
-0.262013
-0.256412
-0.250185
-0.243314
-0.235774
-0.227619
-0.218943
-0.209879
-0.200605
-0.191336
-0.182309
-0.173748
-0.165853
-0.158785
-0.152661
-0.147558
-0.14352
-0.14057
-0.138721
-0.137977
-0.138327
-0.139744
-0.142179
-0.145571
-0.149857
-0.154961
-0.160797
-0.167262
-0.174236
-0.181589
-0.189178
-0.196864
-0.20452
-0.212043
-0.219359
-0.226415
-0.23317
-0.239587
-0.245637
-0.251288
-0.25651
-0.261273
-0.265558
-0.269359
-0.272681
-0.275539
-0.277946
-0.279904
-0.281417
-0.282492
-0.283143
-0.28339
-0.28326
-0.282786
-0.282002
-0.280939
-0.279615
-0.278042
-0.276233
-0.274208
-0.271992
-0.269619
-0.267129
-0.264566
-0.261966
-0.259348
-0.256717
-0.254073
-0.251419
-0.248768
-0.246148
-0.243593
-0.241135
-0.238806
-0.236626
-0.2346
-0.232722
-0.230976
-0.229353
-0.227852
-0.226478
-0.225234
-0.224119
-0.223129
-0.222261
-0.221515
-0.220897
-0.220414
-0.220078
-0.219893
-0.219858
-0.219961
-0.220186
-0.220529
-0.220998
-0.221609
-0.222375
-0.223287
-0.22431
-0.225366
-0.226341
-0.227099
-0.2275
-0.227438
-0.226855
-0.225749
-0.224172
-0.222216
-0.219998
-0.217621
-0.215113
-0.21236
-0.209067
-0.204732
-0.198663
-0.19007
-0.178191
-0.162409
-0.142311
-0.117682
-0.088454
-0.054652
-0.016368
0.026201
0.07265
0.122218
0.173675
0.225305
0.275011
0.320559
0.359905
0.391491
0.414457
0.428687
0.434705
0.433479
0.426177
0.413945
0.397764
0.378423
0.356529
0.332551
0.306885
0.279911
0.252015
0.223579
0.194968
0.166501
0.138457
0.111081
0.084597
0.059216
0.035132
0.012545
-0.008299
-0.027195
-0.044133
-0.059372
-0.073308
-0.086212
-0.098058
-0.108478
-0.116903
-0.122825
-0.126089
-0.127092
-0.126803
-0.126582
-0.127853
-0.131741
-0.138794
-0.148896
-0.161392
-0.175338
-0.189785
-0.203978
-0.217431
-0.229881
-0.241126
-0.250886
-0.258833
-0.264746
-0.268618
-0.270609
-0.27094
-0.269837
-0.267495
-0.264069
-0.259666
-0.254356
-0.248191
-0.241227
-0.23355
-0.225298
-0.21667
-0.2079
-0.199246
-0.190963
-0.183281
-0.176391
-0.170432
-0.165486
-0.161592
-0.158758
-0.156983
-0.156257
-0.156564
-0.157883
-0.160187
-0.163434
-0.167561
-0.172478
-0.178074
-0.184228
-0.190811
-0.197702
-0.204785
-0.211952
-0.219111
-0.22618
-0.233082
-0.239745
-0.246098
-0.252084
-0.257663
-0.262807
-0.26749
-0.271688
-0.275381
-0.278556
-0.281201
-0.283311
-0.284891
-0.285962
-0.286555
-0.286711
-0.286474
-0.285886
-0.285
-0.283868
-0.28254
-0.281062
-0.279467
-0.277783
-0.276026
-0.274206
-0.272326
-0.270389
-0.268399
-0.266371
-0.264321
-0.262256
-0.260184
-0.258107
-0.25603
-0.253957
-0.25189
-0.249841
-0.247825
-0.245858
-0.243946
-0.242092
-0.24029
-0.238537
-0.236834
-0.23519
-0.233625
-0.232166
-0.230846
-0.229687
-0.228705
-0.227904
-0.227284
-0.22684
-0.226578
-0.226501
-0.226604
-0.226875
-0.227291
-0.22782
-0.228427
-0.229081
-0.229772
-0.230507
-0.231309
-0.232208
-0.233235
-0.234406
-0.235718
-0.237139
-0.238613
-0.240056
-0.241371
-0.242457
-0.243226
-0.24361
-0.243562
-0.243067
-0.242138
-0.240808
-0.239123
-0.237158
-0.234976
-0.232563
-0.229745
-0.226124
-0.221053
-0.213689
-0.203122
-0.188549
-0.169396
-0.145368
-0.116437
-0.082757
-0.044576
-0.002185
0.044038
0.093485
0.145155
0.19754
0.248668
0.296294
0.338223
0.372673
0.398551
0.415561
0.424126
0.425168
0.419834
0.409251
0.394381
0.376042
0.354967
0.331757
0.30678
0.280177
0.252022
0.222549
0.192285
0.162062
0.132903
0.105776
0.081318
0.059633
0.040275
0.022428
0.005206
-0.012026
-0.029424
-0.046656
-0.063056
-0.077888
-0.090647
-0.101228
-0.109932
-0.117311
-0.123912
-0.130111
-0.136162
-0.142329
-0.148968
-0.156454
-0.165059
-0.174899
-0.18589
-0.197755
-0.210051
-0.222231
-0.233733
-0.244063
-0.252855
-0.259906
-0.265175
-0.268748
-0.270786
-0.271468
-0.270956
-0.269366
-0.266774
-0.263218
-0.258704
-0.253219
-0.246776
-0.239444
-0.231364
-0.222733
-0.213793
-0.204793
-0.195976
-0.187557
-0.179724
-0.17263
-0.16639
-0.161093
-0.156819
-0.153632
-0.151582
-0.150693
-0.150969
-0.152387
-0.154901
-0.15844
-0.162912
-0.168212
-0.174241
-0.180894
-0.188059
-0.195604
-0.203384
-0.211233
-0.218976
-0.226447
-0.233519
-0.240115
-0.246205
-0.251784
-0.256866
-0.261476
-0.265637
-0.269359
-0.272629
-0.275403
-0.277641
-0.279329
-0.280485
-0.281151
-0.281384
-0.281242
-0.28078
-0.280045
-0.279069
-0.27787
-0.276458
-0.274844
-0.27305
-0.271114
-0.269085
-0.267025
-0.264995
-0.263035
-0.261154
-0.259346
-0.257602
-0.255919
-0.254293
-0.252712
-0.251149
-0.249581
-0.247998
-0.246396
-0.244777
-0.243152
-0.24155
-0.24001
-0.238571
-0.237246
-0.236022
-0.23489
-0.23385
-0.23292
-0.232125
-0.231463
-0.230892
-0.230337
-0.229703
-0.228886
-0.227809
-0.226458
-0.2249
-0.223276
-0.221757
-0.220502
-0.219626
-0.21918
-0.219149
-0.219482
-0.22012
-0.22102
-0.22216
-0.223527
-0.225079
-0.226742
-0.228418
-0.230007
-0.23142
-0.232602
-0.23353
-0.234215
-0.234702
-0.235042
-0.235264
-0.235368
-0.235343
-0.235185
-0.234883
-0.234383
-0.23353
-0.232021
-0.229356
-0.224846
-0.217685
-0.207076
-0.192362
-0.173113
-0.149146
-0.120487
-0.087292
-0.04978
-0.008241
0.036904
0.085048
0.135205
0.18574
0.234378
0.278549
0.315973
0.345161
0.365698
0.378205
0.383997
0.384581
0.381157
0.374321
0.364066
0.350042
0.331934
0.30977
0.284083
0.25584
0.226183
0.196122
0.16633
0.137087
0.10839
0.08016
0.052511
0.025749
0.000181
-0.024001
-0.046714
-0.067906
-0.087521
-0.105503
-0.121807
-0.136418
-0.149376
-0.160793
-0.170877
-0.179939
-0.188365
-0.196572
-0.204946
-0.21378
-0.223206
-0.233179
-0.24347
-0.253689
-0.263348
-0.271935
-0.278995
-0.284188
-0.287331
-0.288405
-0.287521
-0.284883
-0.280717
-0.275226
-0.268584
-0.260935
-0.252412
-0.243149
-0.233278
-0.222947
-0.212315
-0.201554
-0.190836
-0.180335
-0.17022
-0.160662
-0.151819
-0.143837
-0.136833
-0.130902
-0.126114
-0.122521
-0.12016
-0.119064
-0.119266
-0.120779
-0.123598
-0.127664
-0.132846
-0.138969
-0.145851
-0.153326
-0.16125
-0.169495
-0.177949
-0.186496
-0.195004
-0.203332
-0.211342
-0.218922
-0.226004
-0.232559
-0.238589
-0.244111
-0.249135
-0.253669
-0.257712
-0.261263
-0.26434
-0.266989
-0.269282
-0.271298
-0.273088
-0.274655
-0.275978
-0.277029
-0.277793
-0.27827
-0.278467
-0.278391
-0.27805
-0.277433
-0.276533
-0.275352
-0.273903
-0.272198
-0.27025
-0.268088
-0.265774
-0.263398
-0.261061
-0.258834
-0.256736
-0.254721
-0.252687
-0.250491
-0.247988
-0.245067
-0.241698
-0.237981
-0.234141
-0.230471
-0.22726
-0.224732
-0.222984
-0.221949
-0.221409
-0.221049
-0.220536
-0.21961
-0.218145
-0.21619
-0.213947
-0.211707
-0.209755
-0.208282
-0.20736
-0.206949
-0.206934
-0.207179
-0.207572
-0.208052
-0.208591
-0.209153
-0.209697
-0.210163
-0.210468
-0.210511
-0.210211
-0.209529
-0.20846
-0.207038
-0.205306
-0.2033
-0.201028
-0.198442
-0.195371
-0.19147
-0.18621
-0.178929
-0.168905
-0.155441
-0.137909
-0.115791
-0.088715
-0.056409
-0.018781
0.023888
0.07075
0.120379
0.170969
0.220585
0.267417
0.309972
0.347162
0.378247
0.402737
0.420308
0.430773
0.434115
0.430572
0.420725
0.405506
0.386074
0.363613
0.339132
0.313353
0.286699
0.259358
0.23143
0.203118
0.174758
0.146728
0.119308
0.092667
0.066949
0.042299
0.018865
-0.003204
-0.023766
-0.042708
-0.059982
-0.075585
-0.089544
-0.101912
-0.112779
-0.122262
-0.13052
-0.137785
-0.144383
-0.150718
-0.157227
-0.164327
-0.17236
-0.181553
-0.191989
-0.203604
-0.216183
-0.22937
-0.242702
-0.255646
-0.267634
-0.278125
-0.286659
-0.292912
-0.296761
-0.298301
-0.297794
-0.295593
-0.292072
-0.287549
-0.282238
-0.276224
-0.269513
-0.262088
-0.253961
-0.245204
-0.235969
-0.226462
-0.21693
-0.207624
-0.198782
-0.190606
-0.183239
-0.176773
-0.17126
-0.166724
-0.16317
-0.160591
-0.158979
-0.158343
-0.158699
-0.160056
-0.162403
-0.165701
-0.169883
-0.174856
-0.180499
-0.186669
-0.193214
-0.199984
-0.206853
-0.213719
-0.220497
-0.227125
-0.233556
-0.239752
-0.245673
-0.251269
-0.256489
-0.261286
-0.265626
-0.269492
-0.272875
-0.275775
-0.278199
-0.280161
-0.281669
-0.282721
-0.28332
-0.283485
-0.283255
-0.282679
-0.281802
-0.280661
-0.279282
-0.277688
-0.275897
-0.273923
-0.271781
-0.269491
-0.26708
-0.264575
-0.261999
-0.259375
-0.256736
-0.25413
-0.251617
-0.249254
-0.247073
-0.245072
-0.243202
-0.241367
-0.239451
-0.237351
-0.235019
-0.232482
-0.229829
-0.227192
-0.224712
-0.2225
-0.220615
-0.219055
-0.217779
-0.216726
-0.215854
-0.215146
-0.21461
-0.214263
-0.214114
-0.21416
-0.21439
-0.214785
-0.215325
-0.215995
-0.216792
-0.217727
-0.218816
-0.22008
-0.221536
-0.223189
-0.225026
-0.227002
-0.229032
-0.231
-0.232775
-0.234229
-0.235262
-0.235814
-0.235873
-0.23547
-0.234678
-0.233592
-0.23223
-0.230489
-0.228225
-0.225335
-0.221696
-0.216981
-0.210501
-0.201188
-0.187714
-0.168733
-0.14319
-0.110575
-0.07105
-0.025421
0.025009
0.078628
0.133685
0.188383
0.240927
0.289553
0.332587
0.368571
0.396426
0.41561
0.426213
0.428988
0.42517
0.416119
0.40298
0.386561
0.367398
0.345871
0.322292
0.296981
0.270298
0.242625
0.214343
0.185814
0.157376
0.129336
0.101969
0.07552
0.050197
0.026174
0.003593
-0.017435
-0.036833
-0.054556
-0.070589
-0.08494
-0.097644
-0.108773
-0.118448
-0.126845
-0.134185
-0.140741
-0.146836
-0.152833
-0.159109
-0.166026
-0.173876
-0.182835
-0.192929
-0.204004
-0.21573
-0.227627
-0.239134
-0.249698
-0.258847
-0.266245
-0.271721
-0.275257
-0.276948
-0.276945
-0.275407
-0.272473
-0.268259
-0.262875
-0.256435
-0.249074
-0.240945
-0.232223
-0.223092
-0.213734
-0.204323
-0.195017
-0.185971
-0.17735
-0.169333
-0.162099
-0.155808
-0.150589
-0.146532
-0.143691
-0.142085
-0.1417
-0.142493
-0.144408
-0.147365
-0.151265
-0.155996
-0.161444
-0.167492
-0.174037
-0.180988
-0.188256
-0.195755
-0.203392
-0.211069
-0.218684
-0.226132
-0.233313
-0.240153
-0.246597
-0.252603
-0.258136
-0.263162
-0.267651
-0.271583
-0.274949
-0.277756
-0.280021
-0.281781
-0.283073
-0.283932
-0.284383
-0.284442
-0.284114
-0.283402
-0.282323
-0.280915
-0.27923
-0.27734
-0.275335
-0.273285
-0.271221
-0.269111
-0.266883
-0.264453
-0.261763
-0.258813
-0.25566
-0.252413
-0.249207
-0.246163
-0.243361
-0.240823
-0.238524
-0.236421
-0.234471
-0.232653
-0.230978
-0.229484
-0.22822
-0.227232
-0.226539
-0.226121
-0.225925
-0.225885
-0.225928
-0.225982
-0.225992
-0.225936
-0.225832
-0.225744
-0.225756
-0.225945
-0.22636
-0.227001
-0.227827
-0.228769
-0.229771
-0.230801
-0.231852
-0.232933
-0.23405
-0.235184
-0.236288
-0.237296
-0.238075
-0.238438
-0.23827
-0.237668
-0.236952
-0.236463
-0.236328
-0.23633
-0.235908
-0.234317
-0.230873
-0.225184
-0.21725
-0.207396
-0.196061
-0.18353
-0.169712
-0.15405
-0.135598
-0.113227
-0.08591
-0.052965
-0.014247
0.02976
0.077953
0.128743
0.180192
0.230094
0.276096
0.315981
0.348032
0.371319
0.38576
0.392
0.391156
0.384526
0.373326
0.358536
0.340856
0.320752
0.298549
0.274529
0.248982
0.222226
0.194597
0.166449
0.138147
0.110041
0.082433
0.055567
0.029626
0.00475
-0.01896
-0.041408
-0.062495
-0.082113
-0.10015
-0.116515
-0.131166
-0.144129
-0.155507
-0.165472
-0.174261
-0.182178
-0.18957
-0.196805
-0.204236
-0.212167
-0.220799
-0.230183
-0.240178
-0.250446
-0.260496
-0.269757
-0.277669
-0.28377
-0.287758
-0.289518
-0.28911
-0.286723
-0.28261
-0.277037
-0.270246
-0.262435
-0.253758
-0.244334
-0.234255
-0.223609
-0.212507
-0.201087
-0.189521
-0.178013
-0.166795
-0.156111
-0.146195
-0.137254
-0.129452
-0.122907
-0.117695
-0.113856
-0.111399
-0.110297
-0.1105
-0.111947
-0.114568
-0.118286
-0.123013
-0.128658
-0.135116
-0.142264
-0.149961
-0.15805
-0.166373
-0.174787
-0.183177
-0.191459
-0.199574
-0.207471
-0.215102
-0.222402
-0.229296
-0.235696
-0.241528
-0.246742
-0.251335
-0.25534
-0.258809
-0.261801
-0.264357
-0.266496
-0.268208
-0.269469
-0.270261
-0.270593
-0.270507
-0.270073
-0.269372
-0.268477
-0.267438
-0.266279
-0.265009
-0.263626
-0.262135
-0.260556
-0.258925
-0.257281
-0.255657
-0.254072
-0.252538
-0.251069
-0.249678
-0.24838
-0.24719
-0.246111
-0.245132
-0.244231
-0.243371
-0.242516
-0.241639
-0.240728
-0.239788
-0.238836
-0.237901
-0.237013
-0.2362
-0.235479
-0.234847
-0.234282
-0.233756
-0.233249
-0.232758
-0.232304
-0.23194
-0.231733
-0.23174
-0.231973
-0.232371
-0.232817
-0.233131
-0.233048
-0.232294
-0.230764
-0.228631
-0.226271
-0.22401
-0.221914
-0.219665
-0.216608
-0.211917
-0.204843
-0.194941
-0.182144
-0.166694
-0.148911
-0.128901
-0.106313
-0.080306
-0.049759
-0.013689
0.028269
0.075505
0.126324
0.178135
0.227929
0.272907
0.310935
0.340751
0.361963
0.37494
0.380631
0.380252
0.37499
0.365799
0.353336
0.338003
0.32006
0.299748
0.277351
0.253214
0.227733
0.201331
0.174435
0.147442
0.120685
0.09442
0.068834
0.044068
0.020242
-0.002526
-0.024115
-0.0444
-0.063267
-0.08063
-0.096444
-0.110709
-0.123454
-0.13473
-0.144612
-0.153204
-0.160663
-0.167207
-0.173131
-0.178795
-0.184595
-0.190919
-0.198068
-0.206191
-0.215256
-0.225047
-0.23519
-0.245207
-0.25457
-0.262772
-0.269393
-0.274139
-0.276862
-0.27756
-0.276351
-0.273445
-0.269091
-0.263538
-0.257001
-0.249649
-0.241606
-0.232962
-0.223793
-0.214182
-0.204236
-0.194106
-0.183996
-0.174135
-0.164758
-0.156084
-0.148303
-0.141558
-0.135942
-0.131504
-0.12826
-0.126213
-0.12536
-0.125683
-0.127152
-0.129712
-0.133284
-0.137768
-0.143054
-0.149018
-0.155539
-0.1625
-0.169788
-0.177287
-0.184879
-0.19245
-0.199906
-0.207181
-0.214224
-0.220989
-0.227429
-0.233493
-0.239123
-0.244266
-0.248889
-0.252985
-0.256577
-0.259712
-0.26244
-0.264796
-0.266796
-0.268436
-0.269713
-0.270631
-0.271203
-0.271456
-0.271426
-0.271146
-0.270627
-0.269864
-0.268849
-0.26759
-0.266118
-0.264482
-0.262737
-0.260935
-0.25911
-0.257276
-0.255433
-0.253565
-0.251662
-0.249729
-0.247794
-0.245889
-0.244051
-0.242305
-0.240661
-0.239113
-0.237639
-0.236219
-0.234838
-0.233494
-0.232196
-0.23095
-0.229765
-0.228649
-0.227617
-0.226675
-0.225823
-0.225053
-0.224357
-0.223732
-0.223193
-0.222768
-0.222502
-0.222435
-0.222596
-0.222969
-0.223474
-0.223986
-0.22433
-0.224242
-0.223463
-0.221914
-0.219814
-0.217591
-0.215604
-0.213919
-0.212188
-0.209682
-0.205487
-0.19878
-0.189069
-0.176282
-0.160673
-0.142542
-0.12192
-0.09834
-0.070842
-0.038271
0.000259
0.044859
0.094546
0.147218
0.199951
0.249583
0.293378
0.329466
0.356968
0.37589
0.386929
0.391222
0.390015
0.384394
0.375149
0.362782
0.347581
0.329756
0.309537
0.28723
0.263222
0.237955
0.211893
0.185476
0.159093
0.133058
0.107604
0.082907
0.059094
0.036263
0.014501
-0.006117
-0.02551
-0.043589
-0.060265
-0.075463
-0.089133
-0.10126
-0.111872
-0.121035
-0.128856
-0.13549
-0.141147
-0.146087
-0.150616
-0.155075
-0.159825
-0.165212
-0.171521
-0.178925
-0.18745
-0.19695
-0.207109
-0.217472
-0.227499
-0.236643
-0.244427
-0.250502
-0.254679
-0.256932
-0.257372
-0.256202
-0.253669
-0.250002
-0.245384
-0.239943
-0.233755
-0.226872
-0.21934
-0.211219
-0.202604
-0.193628
-0.184469
-0.175335
-0.166454
-0.158053
-0.150344
-0.143513
-0.137704
-0.133019
-0.129518
-0.127218
-0.126101
-0.126118
-0.127202
-0.129272
-0.132248
-0.136055
-0.140625
-0.145893
-0.15179
-0.158234
-0.165126
-0.172343
-0.17974
-0.187171
-0.194493
-0.201602
-0.208431
-0.21495
-0.221146
-0.227017
-0.232553
-0.23773
-0.242509
-0.246846
-0.25071
-0.254087
-0.256991
-0.25945
-0.2615
-0.263174
-0.264495
-0.265472
-0.266105
-0.266391
-0.266342
-0.265979
-0.265331
-0.264422
-0.263274
-0.261902
-0.260321
-0.25855
-0.256613
-0.254552
-0.252421
-0.250276
-0.248167
-0.246115
-0.244116
-0.242155
-0.240215
-0.238283
-0.236353
-0.234429
-0.232523
-0.230652
-0.228834
-0.227087
-0.225428
-0.223875
-0.222448
-0.221157
-0.220003
-0.218984
-0.218094
-0.217329
-0.216679
-0.216135
-0.21569
-0.215337
-0.215077
-0.214906
-0.214818
-0.214808
-0.214873
-0.215012
-0.21524
-0.215584
-0.216016
-0.216448
-0.216859
-0.217393
-0.218328
-0.219854
-0.221867
-0.223881
-0.225095
-0.224608
-0.221741
-0.216304
-0.208717
-0.199922
-0.191075
-0.18316
-0.176626
-0.17122
-0.16602
-0.15968
-0.150758
-0.137976
-0.12036
-0.097242
-0.068193
-0.032945
0.008503
0.055592
0.106957
0.160402
0.213167
0.262353
0.305379
0.340384
0.366475
0.383736
0.393021
0.395615
0.392859
0.385877
0.375447
0.362022
0.345844
0.327099
0.306034
0.282997
0.258413
0.232746
0.206448
0.179911
0.153454
0.127314
0.101668
0.076667
0.052453
0.029167
0.006957
-0.014049
-0.033739
-0.051975
-0.068614
-0.08359
-0.096949
-0.108822
-0.119365
-0.128726
-0.137042
-0.144419
-0.150943
-0.156722
-0.161941
-0.166892
-0.171966
-0.177584
-0.184112
-0.191773
-0.20057
-0.210268
-0.22042
-0.230441
-0.239713
-0.247696
-0.254012
-0.258465
-0.260978
-0.261587
-0.260459
-0.257848
-0.254005
-0.249122
-0.243341
-0.236767
-0.22948
-0.221544
-0.213021
-0.204002
-0.194612
-0.185014
-0.175399
-0.165972
-0.156946
-0.148526
-0.140899
-0.134226
-0.128621
-0.124162
-0.120885
-0.118803
-0.117906
-0.118152
-0.119481
-0.121822
-0.125093
-0.129201
-0.13405
-0.13954
-0.145581
-0.152085
-0.158964
-0.166125
-0.173472
-0.180917
-0.188367
-0.195735
-0.202935
-0.209894
-0.216558
-0.222886
-0.228838
-0.234377
-0.239463
-0.244064
-0.248162
-0.251749
-0.254825
-0.2574
-0.259486
-0.26111
-0.262303
-0.263094
-0.263514
-0.263589
-0.263349
-0.262821
-0.26203
-0.260994
-0.259731
-0.258258
-0.256586
-0.254726
-0.252696
-0.250522
-0.248246
-0.245912
-0.243571
-0.241263
-0.239027
-0.236896
-0.234887
-0.233011
-0.231268
-0.229652
-0.228152
-0.226752
-0.22542
-0.224129
-0.222856
-0.221596
-0.22036
-0.219166
-0.218041
-0.217017
-0.216123
-0.215376
-0.214776
-0.214305
-0.213933
-0.21362
-0.213338
-0.21306
-0.212705
-0.212177
-0.211493
-0.210869
-0.210688
-0.211258
-0.212601
-0.214355
-0.215826
-0.216188
-0.214788
-0.211401
-0.206337
-0.200369
-0.194482
-0.189562
-0.186114
-0.184136
-0.183183
-0.182576
-0.181649
-0.179947
-0.177262
-0.173548
-0.168732
-0.162483
-0.154165
-0.142971
-0.128085
-0.10876
-0.084303
-0.05414
-0.017968
0.024051
0.071117
0.121694
0.173578
0.224119
0.270592
0.310609
0.342492
0.365482
0.379748
0.386193
0.386129
0.380929
0.371752
0.359405
0.344357
0.326842
0.306992
0.284969
0.261056
0.235648
0.209182
0.182074
0.154668
0.127235
0.099985
0.073108
0.046806
0.021295
-0.00321
-0.026525
-0.048524
-0.069134
-0.088324
-0.106071
-0.122326
-0.137016
-0.150069
-0.161458
-0.171246
-0.179609
-0.186846
-0.193352
-0.19955
-0.205816
-0.212426
-0.219544
-0.227192
-0.235233
-0.243376
-0.251205
-0.258237
-0.263998
-0.268096
-0.270273
-0.270432
-0.268617
-0.264977
-0.259724
-0.253085
-0.245263
-0.236431
-0.226739
-0.21632
-0.205308
-0.193845
-0.182081
-0.170179
-0.158319
-0.146707
-0.135551
-0.125053
-0.115393
-0.106731
-0.099204
-0.092916
-0.087936
-0.084308
-0.082052
-0.081171
-0.081642
-0.083419
-0.08643
-0.090576
-0.09574
-0.101789
-0.108586
-0.115994
-0.123886
-0.132139
-0.140634
-0.149252
-0.157878
-0.166409
-0.174759
-0.182855
-0.190629
-0.198023
-0.204998
-0.211523
-0.21757
-0.223114
-0.228134
-0.232621
-0.23658
-0.240023
-0.242966
-0.245423
-0.247408
-0.24893
-0.249996
-0.250616
-0.250808
-0.250606
-0.250056
-0.249209
-0.248118
-0.246835
-0.245412
-0.243902
-0.242351
-0.240787
-0.239225
-0.237675
-0.236144
-0.234641
-0.23318
-0.23178
-0.230466
-0.229264
-0.228177
-0.227188
-0.226259
-0.225355
-0.224448
-0.223521
-0.222569
-0.221597
-0.220619
-0.219649
-0.218696
-0.217765
-0.216863
-0.21599
-0.215131
-0.214276
-0.213399
-0.212402
-0.21117
-0.209728
-0.208353
-0.207492
-0.207496
-0.208397
-0.209796
-0.210919
-0.210856
-0.208881
-0.204731
-0.198722
-0.191661
-0.18458
-0.178386
-0.173597
-0.17022
-0.167821
-0.165726
-0.163255
-0.159883
-0.155286
-0.149254
-0.141513
-0.131525
-0.118482
-0.101479
-0.079705
-0.052552
-0.01967
0.018894
0.062558
0.1101
0.159665
0.208912
0.255302
0.296463
0.330542
0.356461
0.374004
0.383697
0.386559
0.383803
0.376565
0.365738
0.351923
0.335474
0.316605
0.295514
0.272443
0.247706
0.221679
0.194776
0.167412
0.139955
0.112705
0.085889
0.05967
0.034172
0.009499
-0.014249
-0.036963
-0.058523
-0.078806
-0.097694
-0.115097
-0.130956
-0.145252
-0.158013
-0.169338
-0.179408
-0.188484
-0.196895
-0.204991
-0.213099
-0.221462
-0.230181
-0.239183
-0.248216
-0.256896
-0.264771
-0.271394
-0.276397
-0.279529
-0.280666
-0.2798
-0.277008
-0.272422
-0.266199
-0.258519
-0.249573
-0.239558
-0.228669
-0.217091
-0.204997
-0.192544
-0.179887
-0.167187
-0.154624
-0.142407
-0.130771
-0.119955
-0.110183
-0.101637
-0.094446
-0.08869
-0.084403
-0.081583
-0.080196
-0.080188
-0.081496
-0.084048
-0.087757
-0.092511
-0.098182
-0.104631
-0.111723
-0.119326
-0.127313
-0.135569
-0.143984
-0.152457
-0.160889
-0.169187
-0.177265
-0.185053
-0.192501
-0.199573
-0.206236
-0.212466
-0.218242
-0.223551
-0.228386
-0.232751
-0.236667
-0.240166
-0.243287
-0.246056
-0.248472
-0.250514
-0.252143
-0.253324
-0.254034
-0.254277
-0.254086
-0.253518
-0.252646
-0.251538
-0.250242
-0.248787
-0.247194
-0.245481
-0.243671
-0.241788
-0.239852
-0.237885
-0.235901
-0.233911
-0.231924
-0.229947
-0.22799
-0.22607
-0.224205
-0.222413
-0.220708
-0.219105
-0.217614
-0.216238
-0.214961
-0.213756
-0.21259
-0.21144
-0.210287
-0.209127
-0.207973
-0.206848
-0.205775
-0.204782
-0.203874
-0.202977
-0.202008
-0.201021
-0.200281
-0.200161
-0.200877
-0.202303
-0.203903
-0.204835
-0.204194
-0.201331
-0.196105
-0.188973
-0.180857
-0.17286
-0.165913
-0.160498
-0.156506
-0.153272
-0.149788
-0.144974
-0.137906
-0.127909
-0.114518
-0.097314
-0.075711
-0.048962
-0.016353
0.022507
0.067453
0.117637
0.171438
0.226531
0.280143
0.329454
0.37203
0.406186
0.431181
0.447213
0.455202
0.456462
0.452392
0.444183
0.432646
0.41821
0.401059
0.381298
0.359109
0.334814
0.308866
0.28179
0.254114
0.226287
0.198639
0.171369
0.144588
0.118386
0.092882
0.068252
0.044715
0.022501
0.001803
-0.017266
-0.034665
-0.050411
-0.06454
-0.077065
-0.088008
-0.09745
-0.10553
-0.112436
-0.118393
-0.123668
-0.128577
-0.133489
-0.138797
-0.144881
-0.152041
-0.160445
-0.170075
-0.180709
-0.191938
-0.20321
-0.21391
-0.223443
-0.231317
-0.2372
-0.240949
-0.242611
-0.242367
-0.240484
-0.23725
-0.232923
-0.227698
-0.221701
-0.214999
-0.207625
-0.199605
-0.190976
-0.181814
-0.172245
-0.162457
-0.152693
-0.143229
-0.13434
-0.126276
-0.119236
-0.113348
-0.108667
-0.105196
-0.102911
-0.101781
-0.101787
-0.10292
-0.105165
-0.108484
-0.112814
-0.11806
-0.124109
-0.130837
-0.138121
-0.145845
-0.153891
-0.162137
-0.170452
-0.178699
-0.18676
-0.194541
-0.201964
-0.208968
-0.215506
-0.221547
-0.22707
-0.23207
-0.236548
-0.24052
-0.244013
-0.247057
-0.249667
-0.251837
-0.253541
-0.254755
-0.255463
-0.255671
-0.255414
-0.25475
-0.253754
-0.252504
-0.251069
-0.249496
-0.247815
-0.24605
-0.244219
-0.242335
-0.240407
-0.238441
-0.236457
-0.234482
-0.232555
-0.230708
-0.228961
-0.227325
-0.225788
-0.22432
-0.222887
-0.221459
-0.220026
-0.218596
-0.217197
-0.215858
-0.214609
-0.213468
-0.212442
-0.211529
-0.210718
-0.21
-0.209364
-0.20879
-0.208255
-0.207709
-0.207034
-0.20612
-0.205033
-0.204092
-0.203746
-0.204292
-0.20567
-0.207388
-0.208617
-0.208452
-0.206231
-0.201787
-0.195534
-0.188344
-0.181266
-0.175191
-0.170582
-0.167364
-0.164998
-0.162671
-0.159546
-0.15494
-0.148375
-0.139512
-0.127974
-0.113158
-0.094245
-0.070371
-0.040827
-0.005216
0.036434
0.083495
0.134642
0.187874
0.240704
0.290481
0.33478
0.371761
0.400398
0.42053
0.432721
0.437989
0.437503
0.43234
0.423342
0.411077
0.395908
0.378083
0.357834
0.335434
0.31121
0.285536
0.258819
0.231478
0.203912
0.176473
0.149449
0.12307
0.097521
0.072956
0.049515
0.027329
0.006514
-0.012833
-0.03064
-0.046861
-0.061491
-0.074554
-0.086103
-0.096211
-0.104982
-0.112566
-0.11919
-0.125166
-0.130888
-0.136799
-0.143334
-0.150848
-0.159546
-0.169434
-0.180313
-0.191808
-0.203417
-0.214569
-0.224696
-0.233303
-0.240029
-0.244683
-0.247246
-0.247836
-0.24667
-0.244
-0.240068
-0.235063
-0.229101
-0.222245
-0.214548
-0.206085
-0.196977
-0.187394
-0.177548
-0.167669
-0.15799
-0.14872
-0.140041
-0.132108
-0.12506
-0.119022
-0.11409
-0.110327
-0.107767
-0.106422
-0.106291
-0.107357
-0.109582
-0.112902
-0.117224
-0.122428
-0.128375
-0.134916
-0.141911
-0.149248
-0.156837
-0.1646
-0.172467
-0.180368
-0.188234
-0.195995
-0.203571
-0.210872
-0.217802
-0.224263
-0.230175
-0.235482
-0.240151
-0.244191
-0.247648
-0.250589
-0.253082
-0.25518
-0.256905
-0.25825
-0.259182
-0.259661
-0.259656
-0.259171
-0.258246
-0.256955
-0.255384
-0.253619
-0.251733
-0.249778
-0.247779
-0.245729
-0.243596
-0.241352
-0.23899
-0.236546
-0.234086
-0.231687
-0.229416
-0.22731
-0.225373
-0.223574
-0.221873
-0.220245
-0.21869
-0.217235
-0.215912
-0.214742
-0.21373
-0.212861
-0.212103
-0.211417
-0.210768
-0.210134
-0.209509
-0.208893
-0.20829
-0.207693
-0.207024
-0.206182
-0.205188
-0.204276
-0.203828
-0.20413
-0.205169
-0.206542
-0.207517
-0.207271
-0.205204
-0.201206
-0.195719
-0.189603
-0.18385
-0.179242
-0.176103
-0.174232
-0.172944
-0.171296
-0.16853
-0.16439
-0.159132
-0.153316
-0.14749
-0.141796
-0.135803
-0.128593
-0.118982
-0.105736
-0.087706
-0.063977
-0.033987
0.002392
0.044773
0.092191
0.143103
0.195463
0.246894
0.294936
0.337341
0.372357
0.398933
0.416881
0.426824
0.429842
0.427131
0.419811
0.408787
0.39468
0.37787
0.358606
0.337116
0.313675
0.288609
0.26228
0.23505
0.207269
0.179261
0.151325
0.123737
0.096747
0.070574
0.045411
0.021427
-0.001237
-0.022476
-0.042208
-0.060369
-0.076901
-0.091764
-0.104947
-0.116487
-0.126487
-0.135135
-0.142709
-0.149572
-0.156139
-0.162823
-0.169992
-0.17792
-0.186747
-0.196436
-0.206756
-0.217296
-0.227518
-0.236841
-0.244724
-0.250741
-0.254628
-0.256306
-0.255867
-0.253522
-0.249541
-0.24419
-0.237693
-0.230218
-0.221887
-0.212793
-0.203022
-0.192678
-0.181896
-0.170844
-0.159716
-0.148721
-0.138083
-0.128028
-0.118766
-0.110481
-0.10332
-0.097395
-0.092778
-0.089501
-0.087564
-0.086943
-0.087596
-0.089473
-0.092507
-0.096615
-0.10169
-0.10761
-0.114245
-0.121465
-0.129154
-0.137204
-0.145517
-0.153995
-0.162538
-0.171035
-0.179361
-0.187406
-0.195081
-0.202316
-0.209054
-0.215247
-0.220853
-0.225833
-0.230159
-0.233822
-0.236835
-0.239237
-0.241085
-0.242444
-0.243373
-0.243919
-0.244109
-0.243961
-0.243491
-0.242723
-0.241687
-0.240417
-0.238952
-0.237333
-0.235601
-0.233795
-0.231958
-0.230129
-0.228341
-0.226613
-0.224958
-0.223396
-0.221951
-0.220652
-0.21951
-0.21851
-0.2176
-0.216702
-0.215745
-0.214678
-0.2135
-0.212249
-0.210995
-0.209813
-0.208746
-0.207787
-0.206895
-0.206017
-0.205112
-0.204166
-0.203213
-0.202303
-0.201426
-0.200518
-0.199574
-0.198757
-0.19836
-0.198605
-0.199438
-0.20044
-0.200888
-0.199975
-0.197093
-0.192084
-0.185343
-0.177724
-0.170288
-0.163976
-0.159337
-0.15638
-0.154611
-0.153214
-0.151282
-0.148002
-0.142752
-0.135072
-0.124548
-0.110634
-0.09264
-0.069864
-0.041807
-0.008322
0.030318
0.073351
0.119476
0.166898
0.213482
0.256999
0.295433
0.327266
0.351651
0.368452
0.378127
0.381506
0.37956
0.373193
0.363134
0.349907
0.333867
0.315277
0.294386
0.271466
0.246831
0.22084
0.193895
0.16641
0.138781
0.111351
0.084386
0.058083
0.032574
0.007957
-0.015687
-0.038266
-0.059667
-0.079755
-0.098386
-0.115448
-0.130897
-0.144778
-0.157239
-0.168525
-0.178966
-0.188932
-0.198766
-0.208727
-0.218931
-0.229325
-0.239685
-0.249643
-0.258738
-0.266497
-0.272506
-0.276462
-0.278197
-0.277673
-0.274965
-0.270228
-0.263656
-0.255464
-0.245863
-0.235047
-0.223216
-0.210574
-0.197326
-0.183682
-0.169854
-0.156056
-0.142507
-0.129422
-0.117016
-0.105501
-0.095073
-0.085914
-0.07818
-0.071984
-0.067399
-0.064448
-0.063102
-0.06328
-0.06486
-0.067705
-0.071673
-0.076635
-0.082471
-0.089072
-0.096334
-0.104163
-0.112465
-0.121134
-0.130054
-0.139095
-0.148126
-0.157019
-0.165656
-0.173938
-0.181786
-0.189145
-0.195978
-0.20227
-0.208022
-0.213251
-0.217983
-0.222248
-0.226068
-0.229454
-0.232407
-0.234919
-0.236982
-0.238585
-0.239732
-0.240442
-0.240751
-0.240711
-0.240378
-0.239795
-0.238988
-0.23798
-0.236784
-0.235411
-0.233876
-0.232206
-0.230439
-0.228614
-0.226773
-0.22495
-0.223173
-0.221462
-0.219828
-0.218262
-0.21674
-0.21523
-0.213708
-0.212162
-0.210599
-0.209041
-0.207515
-0.206043
-0.20464
-0.203312
-0.202047
-0.200825
-0.199631
-0.198462
-0.19733
-0.196261
-0.195287
-0.19444
-0.193752
-0.193251
-0.192956
-0.192869
-0.192979
-0.193196
-0.193328
-0.193182
-0.192726
-0.192139
-0.191662
-0.191367
-0.191006
-0.190014
-0.187662
-0.18332
-0.176707
-0.168015
-0.157848
-0.146981
-0.136029
-0.125124
-0.113749
-0.100758
-0.0846
-0.063645
-0.036549
-0.002557
0.038309
0.085196
0.136552
0.190315
0.244067
0.295217
0.341281
0.380282
0.411056
0.43333
0.447608
0.454887
0.456349
0.453077
0.445907
0.435383
0.421818
0.405407
0.386339
0.364859
0.341288
0.316013
0.289474
0.262128
0.234417
0.206723
0.179361
0.152568
0.126534
0.101417
0.077359
0.05448
0.032884
0.012661
-0.006112
-0.023363
-0.039039
-0.053106
-0.065559
-0.076437
-0.085842
-0.093946
-0.100996
-0.107295
-0.113194
-0.119063
-0.12528
-0.132188
-0.140055
-0.149036
-0.159128
-0.170144
-0.181715
-0.193315
-0.204323
-0.214118
-0.222171
-0.228131
-0.231848
-0.233371
-0.232892
-0.23069
-0.22705
-0.222216
-0.216364
-0.209617
-0.202065
-0.19379
-0.184886
-0.175469
-0.165684
-0.155704
-0.145736
-0.13601
-0.126766
-0.11824
-0.110647
-0.104161
-0.098891
-0.094885
-0.092131
-0.090589
-0.090211
-0.090962
-0.092823
-0.095781
-0.099811
-0.104849
-0.110784
-0.117471
-0.124746
-0.132446
-0.140421
-0.148536
-0.156672
-0.164722
-0.172598
-0.180229
-0.187565
-0.194575
-0.201243
-0.207553
-0.213482
-0.218988
-0.224012
-0.228498
-0.232403
-0.235716
-0.238455
-0.240667
-0.242406
-0.24373
-0.244684
-0.245298
-0.245586
-0.245542
-0.245151
-0.244403
-0.243291
-0.241826
-0.24005
-0.238027
-0.235837
-0.233551
-0.231223
-0.228882
-0.226542
-0.224205
-0.22188
-0.219581
-0.217325
-0.215131
-0.213003
-0.210931
-0.208897
-0.206885
-0.204904
-0.202985
-0.201168
-0.199486
-0.197956
-0.196575
-0.19533
-0.194201
-0.193178
-0.19227
-0.191501
-0.190899
-0.190486
-0.190258
-0.190194
-0.190263
-0.190439
-0.19071
-0.191071
-0.191522
-0.192065
-0.192708
-0.193449
-0.194211
-0.194889
-0.195483
-0.196169
-0.197221
-0.198767
-0.200622
-0.202237
-0.202807
-0.201518
-0.197833
-0.191731
-0.183775
-0.174979
-0.166472
-0.159121
-0.153215
-0.14834
-0.143469
-0.137217
-0.12815
-0.115024
-0.096908
-0.07317
-0.043395
-0.007325
0.035
0.082975
0.135235
0.189699
0.243836
0.295014
0.340864
0.379615
0.410294
0.432758
0.447539
0.455577
0.457933
0.455562
0.449186
0.439269
0.426094
0.409861
0.390795
0.369198
0.345473
0.320093
0.293569
0.266387
0.238959
0.211604
0.184559
0.158011
0.132139
0.107134
0.083201
0.060543
0.039343
0.019745
0.001851
-0.014282
-0.028643
-0.041267
-0.052234
-0.061672
-0.069766
-0.076763
-0.082963
-0.088711
-0.094374
-0.100323
-0.106914
-0.114452
-0.123163
-0.133152
-0.144372
-0.156598
-0.169436
-0.182347
-0.194715
-0.205925
-0.215452
-0.22292
-0.228145
-0.231127
-0.23202
-0.231082
-0.228612
-0.224886
-0.220114
-0.214435
-0.207928
-0.20064
-0.192621
-0.18395
-0.174751
-0.165197
-0.1555
-0.145897
-0.136636
-0.127969
-0.120132
-0.113332
-0.107727
-0.103408
-0.100399
-0.098672
-0.098161
-0.098785
-0.100473
-0.103172
-0.106843
-0.111447
-0.116922
-0.123174
-0.130072
-0.13747
-0.145215
-0.15316
-0.161177
-0.169165
-0.177036
-0.184721
-0.192157
-0.199281
-0.206041
-0.212395
-0.218317
-0.223781
-0.228752
-0.233186
-0.237038
-0.240274
-0.242873
-0.244843
-0.246224
-0.247086
-0.247507
-0.247561
-0.247298
-0.246738
-0.245891
-0.244763
-0.243373
-0.241744
-0.239912
-0.237914
-0.23579
-0.233565
-0.231253
-0.228876
-0.226465
-0.224068
-0.221724
-0.219457
-0.217273
-0.215165
-0.213123
-0.211138
-0.209201
-0.207318
-0.205509
-0.203793
-0.202188
-0.200696
-0.199312
-0.19803
-0.196854
-0.195795
-0.194856
-0.194034
-0.193333
-0.192764
-0.192342
-0.192083
-0.191996
-0.192072
-0.192266
-0.192515
-0.192754
-0.192892
-0.192816
-0.192509
-0.192153
-0.192128
-0.192817
-0.194358
-0.196507
-0.198648
-0.199962
-0.199712
-0.197524
-0.193549
-0.188428
-0.183082
-0.178416
-0.175022
-0.173021
-0.172073
-0.171541
-0.170761
-0.169273
-0.166923
-0.163811
-0.160108
-0.155786
-0.150461
-0.143447
-0.133909
-0.120998
-0.103875
-0.081721
-0.053835
-0.01976
0.02056
0.066625
0.117281
0.170733
0.224693
0.276641
0.324161
0.36527
0.398671
0.423856
0.441048
0.450995
0.454691
0.453128
0.447129
0.4373
0.424052
0.407689
0.388501
0.366826
0.343057
0.317632
0.29099
0.263544
0.235661
0.207654
0.179801
0.152356
0.125565
0.099669
0.074904
0.051481
0.029567
0.009273
-0.009333
-0.026219
-0.041386
-0.054862
-0.066714
-0.077048
-0.086018
-0.093844
-0.100815
-0.107278
-0.11363
-0.120278
-0.127603
-0.135912
-0.145387
-0.156039
-0.167689
-0.179966
-0.19235
-0.204238
-0.215014
-0.224144
-0.23124
-0.23611
-0.23876
-0.239348
-0.238125
-0.235363
-0.231311
-0.226162
-0.220041
-0.21301
-0.205116
-0.196422
-0.187034
-0.177122
-0.166914
-0.156668
-0.146653
-0.137118
-0.128269
-0.120265
-0.113222
-0.107227
-0.102351
-0.098644
-0.096142
-0.094869
-0.094835
-0.096032
-0.098424
-0.101947
-0.106514
-0.112025
-0.11836
-0.125374
-0.132899
-0.140758
-0.148783
-0.156829
-0.16479
-0.172595
-0.180206
-0.187606
-0.194776
-0.201679
-0.208255
-0.214438
-0.220172
-0.225419
-0.230157
-0.234378
-0.238075
-0.241242
-0.24387
-0.245952
-0.247481
-0.24847
-0.248958
-0.248996
-0.248638
-0.247939
-0.246947
-0.245709
-0.244268
-0.242662
-0.240922
-0.239073
-0.237137
-0.235122
-0.233024
-0.230831
-0.228532
-0.22613
-0.223636
-0.221074
-0.218475
-0.215871
-0.213303
-0.210817
-0.208447
-0.20621
-0.204111
-0.202137
-0.200257
-0.198442
-0.196666
-0.194931
-0.19327
-0.191734
-0.19037
-0.189202
-0.188227
-0.187429
-0.186749
-0.186064
-0.185298
-0.184552
-0.18413
-0.18438
-0.185435
-0.187063
-0.188673
-0.189473
-0.188752
-0.186156
-0.181876
-0.176631
-0.171463
-0.167407
-0.165167
-0.164913
-0.166288
-0.168588
-0.171033
-0.173024
-0.174288
-0.174887
-0.1751
-0.175191
-0.175244
-0.175192
-0.174939
-0.174458
-0.173774
-0.172899
-0.171818
-0.170493
-0.168828
-0.166628
-0.163562
-0.159158
-0.1528
-0.143758
-0.131246
-0.114482
-0.09276
-0.06551
-0.032374
0.006699
0.051344
0.100673
0.153227
0.207019
0.2597
0.30884
0.352254
0.388298
0.416051
0.435354
0.446693
0.45097
0.449233
0.44245
0.431398
0.416648
0.398618
0.377665
0.354162
0.328536
0.301253
0.27278
0.243546
0.213916
0.184189
0.154618
0.125439
0.096898
0.069246
0.04272
0.017532
-0.006149
-0.028192
-0.048506
-0.067023
-0.083693
-0.098489
-0.111435
-0.122647
-0.132344
-0.140852
-0.148583
-0.156004
-0.163572
-0.17166
-0.180486
-0.190069
-0.200234
-0.210637
-0.220822
-0.230284
-0.238516
-0.245075
-0.24963
-0.251995
-0.252125
-0.250089
-0.246043
-0.240199
-0.232801
-0.224091
-0.214292
-0.203599
-0.192192
-0.180237
-0.167901
-0.155374
-0.142875
-0.130653
-0.118961
-0.108019
-0.097992
-0.088998
-0.081111
-0.074393
-0.068904
-0.064699
-0.061838
-0.060383
-0.060387
-0.061868
-0.064801
-0.069101
-0.074639
-0.081252
-0.088753
-0.096953
-0.105676
-0.114772
-0.124107
-0.13356
-0.143011
-0.152348
-0.161465
-0.170271
-0.178684
-0.186639
-0.194085
-0.200988
-0.20733
-0.213093
-0.218254
-0.222794
-0.226704
-0.229995
-0.232702
-0.234883
-0.236603
-0.237922
-0.238882
-0.239501
-0.239776
-0.239692
-0.239237
-0.238409
-0.237224
-0.235716
-0.233946
-0.23199
-0.229928
-0.227825
-0.225725
-0.223651
-0.221619
-0.219643
-0.217731
-0.215883
-0.214087
-0.212326
-0.210579
-0.208831
-0.207081
-0.20535
-0.203668
-0.20206
-0.200556
-0.199154
-0.197767
-0.196279
-0.194685
-0.193193
-0.192149
-0.191797
-0.192091
-0.192615
-0.192667
-0.191484
-0.188544
-0.183801
-0.177765
-0.171369
-0.16568
-0.161565
-0.159444
-0.159202
-0.160296
-0.161991
-0.163645
-0.164886
-0.165668
-0.166181
-0.166647
-0.167107
-0.167405
-0.167317
-0.166705
-0.165558
-0.163938
-0.161949
-0.159716
-0.157332
-0.154805
-0.151996
-0.148582
-0.144048
-0.137706
-0.128743
-0.116302
-0.09958
-0.077902
-0.050772
-0.017922
0.02061
0.06439
0.112494
0.163483
0.215446
0.266156
0.313313
0.35485
0.389207
0.415503
0.433574
0.443865
0.447221
0.44465
0.437115
0.425413
0.410141
0.391737
0.370556
0.346957
0.321326
0.294075
0.265629
0.236408
0.206819
0.177241
0.148002
0.119371
0.091568
0.064768
0.039112
0.014721
-0.008294
-0.029826
-0.049766
-0.068022
-0.084527
-0.099253
-0.112232
-0.123564
-0.133431
-0.142112
-0.149972
-0.157439
-0.16495
-0.1729
-0.181568
-0.191061
-0.20128
-0.211917
-0.222501
-0.232477
-0.241292
-0.248464
-0.253643
-0.256636
-0.25741
-0.256056
-0.252753
-0.24772
-0.24119
-0.233387
-0.224518
-0.214769
-0.204303
-0.193277
-0.181852
-0.170209
-0.158542
-0.147055
-0.135948
-0.125411
-0.115627
-0.106764
-0.098962
-0.092334
-0.086971
-0.082933
-0.080254
-0.078944
-0.078995
-0.080383
-0.083054
-0.086915
-0.09184
-0.097684
-0.10429
-0.111512
-0.11922
-0.127295
-0.135636
-0.144149
-0.152738
-0.161302
-0.169732
-0.177924
-0.18579
-0.19327
-0.200326
-0.20693
-0.213067
-0.218725
-0.223893
-0.228557
-0.23271
-0.236352
-0.239491
-0.242145
-0.244337
-0.246093
-0.247442
-0.24842
-0.249061
-0.249396
-0.249442
-0.249208
-0.248695
-0.247903
-0.246845
-0.245538
-0.244012
-0.242305
-0.240451
-0.238467
-0.236357
-0.234121
-0.231771
-0.229333
-0.226837
-0.224312
-0.221769
-0.219209
-0.216627
-0.214019
-0.211377
-0.208715
-0.206051
-0.20334
-0.200517
-0.197631
-0.194927
-0.192759
-0.19135
-0.190622
-0.190129
-0.189172
-0.187029
-0.18323
-0.17777
-0.171174
-0.164373
-0.158422
-0.154163
-0.151968
-0.151652
-0.15259
-0.153987
-0.155173
-0.155802
-0.1559
-0.155783
-0.155838
-0.156279
-0.157107
-0.158215
-0.159515
-0.160957
-0.162471
-0.163961
-0.165312
-0.166399
-0.167102
-0.167315
-0.166959
-0.166
-0.164467
-0.16244
-0.16002
-0.157277
-0.15418
-0.150531
-0.145926
-0.139768
-0.131303
-0.119693
-0.104086
-0.083706
-0.057919
-0.026268
0.011499
0.055343
0.104823
0.158977
0.216254
0.27454
0.331324
0.383986
0.430154
0.468045
0.496698
0.516016
0.526635
0.52966
0.526367
0.517942
0.505319
0.489144
0.469833
0.447692
0.423033
0.396245
0.367789
0.33815
0.30781
0.277209
0.246725
0.216672
0.187311
0.158865
0.131539
0.105522
0.080986
0.058079
0.036922
0.017602
0.000164
-0.015393
-0.029111
-0.041054
-0.051305
-0.059985
-0.067269
-0.073387
-0.078636
-0.083398
-0.088104
-0.093108
-0.098686
-0.105159
-0.112897
-0.122219
-0.133276
-0.145954
-0.159818
-0.174147
-0.188062
-0.200694
-0.211373
-0.219723
-0.225696
-0.229488
-0.231426
-0.231834
-0.230936
-0.228834
-0.225543
-0.221065
-0.215454
-0.208835
-0.201418
-0.19343
-0.184989
-0.176138
-0.167004
-0.157826
-0.148896
-0.1405
-0.132868
-0.126145
-0.120406
-0.115694
-0.112048
-0.109528
-0.108207
-0.108143
-0.109353
-0.111795
-0.115368
-0.119918
-0.12526
-0.131215
-0.137643
-0.14445
-0.151579
-0.158995
-0.166668
-0.174551
-0.182563
-0.190617
-0.198639
-0.206567
-0.214341
-0.221872
-0.229034
-0.235674
-0.241644
-0.246831
-0.25119
-0.254753
-0.257622
-0.259942
-0.261854
-0.263466
-0.264814
-0.265862
-0.26653
-0.266736
-0.266439
-0.265656
-0.264462
-0.262967
-0.261286
-0.25951
-0.257696
-0.255849
-0.253941
-0.251933
-0.249799
-0.247488
-0.244894
-0.241946
-0.238745
-0.235605
-0.232895
-0.230786
-0.229103
-0.227313
-0.224681
-0.220534
-0.214537
-0.206876
-0.198261
-0.189728
-0.182313
-0.176722
-0.173143
-0.171241
-0.17034
-0.169706
-0.168815
-0.167497
-0.165935
-0.164508
-0.163543
-0.16312
-0.163105
-0.163311
-0.16363
-0.164033
-0.164509
-0.165058
-0.16569
-0.166421
-0.167261
-0.168218
-0.169294
-0.170496
-0.171822
-0.173251
-0.174736
-0.176202
-0.177559
-0.178709
-0.179562
-0.180045
-0.180106
-0.179712
-0.178848
-0.177513
-0.175723
-0.173507
-0.170902
-0.16791
-0.16443
-0.160194
-0.154735
-0.147421
-0.137503
-0.124183
-0.10669
-0.084365
-0.056713
-0.023435
0.015544
0.060014
0.109375
0.162545
0.217923
0.273445
0.326764
0.375531
0.417703
0.45182
0.477171
0.493785
0.502292
0.503688
0.499084
0.489515
0.475836
0.458692
0.438557
0.415814
0.390822
0.363955
0.335609
0.306181
0.276067
0.245668
0.215373
0.185542
0.156491
0.128479
0.10171
0.076344
0.052511
0.03032
0.009862
-0.008788
-0.025576
-0.040487
-0.053556
-0.064873
-0.074578
-0.082857
-0.089933
-0.09607
-0.101579
-0.106829
-0.112234
-0.11823
-0.125228
-0.133547
-0.143344
-0.154555
-0.166877
-0.179799
-0.192673
-0.204811
-0.215583
-0.22451
-0.231314
-0.235923
-0.238435
-0.23905
-0.238012
-0.235562
-0.2319
-0.227178
-0.221504
-0.214955
-0.207592
-0.199488
-0.190733
-0.181448
-0.171794
-0.161978
-0.152248
-0.142873
-0.13411
-0.126184
-0.119272
-0.113496
-0.108923
-0.105586
-0.103498
-0.102665
-0.103077
-0.104705
-0.107499
-0.111376
-0.116227
-0.121925
-0.128337
-0.13534
-0.142823
-0.150685
-0.158828
-0.167145
-0.17552
-0.183829
-0.191955
-0.19979
-0.207243
-0.214244
-0.220746
-0.226731
-0.232196
-0.237143
-0.241565
-0.245454
-0.248788
-0.251547
-0.253722
-0.255328
-0.256399
-0.256984
-0.257135
-0.256888
-0.256264
-0.25527
-0.253851
-0.251908
-0.249436
-0.246652
-0.243967
-0.241755
-0.240089
-0.238652
-0.236824
-0.233891
-0.229308
-0.222908
-0.215006
-0.206309
-0.197699
-0.189952
-0.18351
-0.178401
-0.174316
-0.17082
-0.167583
-0.164535
-0.161868
-0.159912
-0.158948
-0.158988
-0.15974
-0.160768
-0.161707
-0.162374
-0.162715
-0.162742
-0.162521
-0.162169
-0.16182
-0.161572
-0.16147
-0.161522
-0.16172
-0.162059
-0.162543
-0.16318
-0.163968
-0.164882
-0.165872
-0.166876
-0.16783
-0.168665
-0.169321
-0.169755
-0.169958
-0.169949
-0.16976
-0.169425
-0.168968
-0.168403
-0.167732
-0.16695
-0.166048
-0.165001
-0.163728
-0.162047
-0.159618
-0.155927
-0.150307
-0.142006
-0.130286
-0.1145
-0.094142
-0.068889
-0.038605
-0.003328
0.036729
0.081131
0.129132
0.179584
0.230921
0.281227
0.328406
0.370423
0.405584
0.432757
0.451487
0.461959
0.46485
0.461118
0.451793
0.43783
0.420024
0.398999
0.375239
0.349147
0.321113
0.291547
0.260874
0.229516
0.197877
0.166339
0.135256
0.104945
0.075674
0.047667
0.021102
-0.003881
-0.02718
-0.048732
-0.068491
-0.086421
-0.102505
-0.116755
-0.129242
-0.14012
-0.149638
-0.158142
-0.166055
-0.17383
-0.181885
-0.190516
-0.199836
-0.209741
-0.219917
-0.229891
-0.23912
-0.247082
-0.253355
-0.257676
-0.259939
-0.26017
-0.258476
-0.25501
-0.249932
-0.24339
-0.235525
-0.226472
-0.216382
-0.205442
-0.193875
-0.181913
-0.169783
-0.157693
-0.145823
-0.134344
-0.123413
-0.113186
-0.103815
-0.095447
-0.088211
-0.082216
-0.077547
-0.074262
-0.072393
-0.071943
-0.07289
-0.075193
-0.078783
-0.083566
-0.089422
-0.096209
-0.103771
-0.111958
-0.120644
-0.129712
-0.139041
-0.148489
-0.157905
-0.167137
-0.176052
-0.184552
-0.192562
-0.200038
-0.206958
-0.213315
-0.219117
-0.224377
-0.229117
-0.233359
-0.237113
-0.240384
-0.243167
-0.245448
-0.247213
-0.248466
-0.249234
-0.249492
-0.24921
-0.248481
-0.247586
-0.246901
-0.246666
-0.246805
-0.246881
-0.246198
-0.244024
-0.239865
-0.233687
-0.225989
-0.217689
-0.209851
-0.203353
-0.198636
-0.195605
-0.193738
-0.192317
-0.190714
-0.1886
-0.186
-0.183214
-0.180609
-0.17837
-0.176452
-0.174708
-0.17303
-0.171398
-0.169827
-0.168348
-0.166998
-0.165802
-0.164765
-0.163863
-0.163058
-0.162322
-0.161645
-0.161037
-0.160518
-0.16011
-0.159833
-0.159705
-0.159736
-0.159931
-0.160292
-0.160816
-0.16148
-0.162233
-0.16298
-0.163592
-0.163922
-0.163826
-0.163194
-0.161968
-0.160156
-0.157837
-0.155129
-0.152144
-0.148913
-0.145322
-0.141046
-0.135532
-0.128049
-0.117775
-0.103908
-0.08575
-0.062758
-0.034576
-0.001032
0.037848
0.08179
0.13018
0.18198
0.23567
0.289299
0.340637
0.387431
0.427703
0.460025
0.483671
0.498629
0.505478
0.505178
0.49883
0.487483
0.472024
0.453142
0.431359
0.40708
0.380655
0.352451
0.322861
0.292305
0.261212
0.230001
0.199059
0.168729
0.139296
0.110998
0.084028
0.058537
0.034642
0.012437
-0.008
-0.026601
-0.043324
-0.058159
-0.071134
-0.082332
-0.091888
-0.100005
-0.106956
-0.113073
-0.118735
-0.124348
-0.13031
-0.136978
-0.144634
-0.153439
-0.163404
-0.174358
-0.185947
-0.197655
-0.208865
-0.218957
-0.227407
-0.233842
-0.238072
-0.240088
-0.240023
-0.238116
-0.234636
-0.229841
-0.22394
-0.217083
-0.209391
-0.200974
-0.191945
-0.182428
-0.172566
-0.162535
-0.152543
-0.142822
-0.133618
-0.12516
-0.117644
-0.111214
-0.105947
-0.101871
-0.098985
-0.097285
-0.096768
-0.097431
-0.099269
-0.10226
-0.106356
-0.111463
-0.117444
-0.124128
-0.131343
-0.138947
-0.146837
-0.154928
-0.163143
-0.171399
-0.179605
-0.187663
-0.195477
-0.202965
-0.210067
-0.216755
-0.223016
-0.228837
-0.234199
-0.23908
-0.243463
-0.24734
-0.250702
-0.253545
-0.255873
-0.257689
-0.25893
-0.259514
-0.259474
-0.259059
-0.25867
-0.258616
-0.258895
-0.259117
-0.258577
-0.256496
-0.252312
-0.245942
-0.237875
-0.229065
-0.220647
-0.21358
-0.208356
-0.204891
-0.202622
-0.200772
-0.198646
-0.195858
-0.192407
-0.188598
-0.184841
-0.181388
-0.178267
-0.175384
-0.172658
-0.170082
-0.167681
-0.165478
-0.163491
-0.161727
-0.160184
-0.158845
-0.157692
-0.156711
-0.155902
-0.15529
-0.154905
-0.154763
-0.15485
-0.155128
-0.155551
-0.156072
-0.156661
-0.157303
-0.158002
-0.158772
-0.159641
-0.160631
-0.161764
-0.163038
-0.164435
-0.165911
-0.167384
-0.168727
-0.169785
-0.170398
-0.170424
-0.169772
-0.168425
-0.166458
-0.16403
-0.161325
-0.158466
-0.155417
-0.151924
-0.147484
-0.141382
-0.132766
-0.120764
-0.104585
-0.083584
-0.057311
-0.025525
0.011805
0.054484
0.102027
0.153581
0.207845
0.263072
0.317152
0.367808
0.412877
0.450603
0.479869
0.500297
0.512183
0.516319
0.51376
0.505598
0.492805
0.476165
0.456288
0.433664
0.408715
0.381839
0.353452
0.323967
0.293779
0.263262
0.232769
0.202636
0.173173
0.144661
0.117347
0.091435
0.067087
0.044422
0.023526
0.004466
-0.012711
-0.02799
-0.041405
-0.053038
-0.063024
-0.071542
-0.078806
-0.085061
-0.090588
-0.095722
-0.100845
-0.10637
-0.112699
-0.120173
-0.129012
-0.139269
-0.150802
-0.163279
-0.176209
-0.188988
-0.200989
-0.211643
-0.220509
-0.227317
-0.231985
-0.234592
-0.235343
-0.234502
-0.232332
-0.229048
-0.224791
-0.219637
-0.213622
-0.206782
-0.199187
-0.190958
-0.182276
-0.173363
-0.164452
-0.155769
-0.147505
-0.139819
-0.132845
-0.126701
-0.121489
-0.117308
-0.114243
-0.112351
-0.111653
-0.112125
-0.113713
-0.116349
-0.119955
-0.124444
-0.129724
-0.135691
-0.142232
-0.149228
-0.15656
-0.164111
-0.171775
-0.17947
-0.187132
-0.194704
-0.202133
-0.209361
-0.216309
-0.222878
-0.228974
-0.234513
-0.239384
-0.243456
-0.246695
-0.249262
-0.251503
-0.253752
-0.256108
-0.258307
-0.259754
-0.259718
-0.257606
-0.253231
-0.246936
-0.239532
-0.232067
-0.22551
-0.220471
-0.217052
-0.214881
-0.213316
-0.211715
-0.209654
-0.207034
-0.204054
-0.201044
-0.198242
-0.195681
-0.193252
-0.190836
-0.188401
-0.185959
-0.183532
-0.181147
-0.178828
-0.176595
-0.174463
-0.172445
-0.170534
-0.168713
-0.166951
-0.165235
-0.163572
-0.161998
-0.160569
-0.159346
-0.158373
-0.157676
-0.157257
-0.157103
-0.157188
-0.157478
-0.157943
-0.158551
-0.159273
-0.160095
-0.161017
-0.162048
-0.163201
-0.164486
-0.165887
-0.167354
-0.168815
-0.170186
-0.171378
-0.172317
-0.172956
-0.173285
-0.17332
-0.17309
-0.172626
-0.171956
-0.171099
-0.170059
-0.168785
-0.167142
-0.164849
-0.161448
-0.156305
-0.148658
-0.137699
-0.122675
-0.102969
-0.078172
-0.048111
-0.012849
0.027338
0.071945
0.120206
0.171048
0.22306
0.274507
0.323431
0.367856
0.406007
0.436522
0.458617
0.472161
0.477622
0.475895
0.468065
0.455191
0.43818
0.417739
0.3944
0.368592
0.340714
0.31119
0.280483
0.24906
0.217355
0.185743
0.154531
0.123968
0.094269
0.065636
0.038263
0.012344
-0.011929
-0.034397
-0.054954
-0.073543
-0.090137
-0.104741
-0.117408
-0.128272
-0.137574
-0.145655
-0.152937
-0.159891
-0.166985
-0.174625
-0.183085
-0.192458
-0.202619
-0.213236
-0.223823
-0.233822
-0.242685
-0.249946
-0.255271
-0.258471
-0.259498
-0.258418
-0.255367
-0.250519
-0.244067
-0.236219
-0.227191
-0.2172
-0.206453
-0.195146
-0.183466
-0.171589
-0.159684
-0.147918
-0.136465
-0.125517
-0.115269
-0.105904
-0.097585
-0.090441
-0.084579
-0.080076
-0.076979
-0.075312
-0.07508
-0.076276
-0.078876
-0.082825
-0.088034
-0.094394
-0.101785
-0.110084
-0.11915
-0.128806
-0.138849
-0.149058
-0.15922
-0.16915
-0.178698
-0.187756
-0.196262
-0.204185
-0.211481
-0.218024
-0.223684
-0.228486
-0.232691
-0.236694
-0.240761
-0.244841
-0.24851
-0.251069
-0.251777
-0.250156
-0.24622
-0.240549
-0.234136
-0.228082
-0.223246
-0.220004
-0.218198
-0.217257
-0.216459
-0.215209
-0.213225
-0.210593
-0.207662
-0.204809
-0.202218
-0.199863
-0.197633
-0.195461
-0.193338
-0.191256
-0.189212
-0.187215
-0.18528
-0.183427
-0.181669
-0.180005
-0.178425
-0.176912
-0.175449
-0.174027
-0.172659
-0.171376
-0.170213
-0.169199
-0.168333
-0.167584
-0.166903
-0.166243
-0.165577
-0.164908
-0.164272
-0.163731
-0.163366
-0.16325
-0.163429
-0.163895
-0.164577
-0.165345
-0.166024
-0.166425
-0.166377
-0.165757
-0.164513
-0.162672
-0.160329
-0.157628
-0.154723
-0.151717
-0.148589
-0.145117
-0.140844
-0.135094
-0.127059
-0.115909
-0.100888
-0.081389
-0.056994
-0.027488
0.007143
0.04672
0.090843
0.138833
0.189658
0.241891
0.293741
0.343178
0.388149
0.426828
0.457868
0.480546
0.494774
0.501001
0.500039
0.492871
0.480483
0.463766
0.443469
0.420199
0.39446
0.366702
0.337366
0.306895
0.275714
0.244218
0.212772
0.181711
0.15134
0.121934
0.093727
0.066917
0.041658
0.018068
-0.003762
-0.023752
-0.041832
-0.057955
-0.072122
-0.084382
-0.094848
-0.103705
-0.111215
-0.117709
-0.123581
-0.129269
-0.135221
-0.14186
-0.149526
-0.158423
-0.168567
-0.179751
-0.191565
-0.203444
-0.214755
-0.224892
-0.233361
-0.239834
-0.24417
-0.246395
-0.246647
-0.245113
-0.241992
-0.23748
-0.231759
-0.224996
-0.217349
-0.208964
-0.199973
-0.190499
-0.180662
-0.170594
-0.160451
-0.150425
-0.140737
-0.131619
-0.1233
-0.115981
-0.109821
-0.104928
-0.101353
-0.099096
-0.098121
-0.09837
-0.099786
-0.102311
-0.105878
-0.110418
-0.115866
-0.12215
-0.129174
-0.136816
-0.14493
-0.153365
-0.161978
-0.170637
-0.179228
-0.187646
-0.195805
-0.203635
-0.211065
-0.218039
-0.224524
-0.230494
-0.235865
-0.240543
-0.244551
-0.248113
-0.251577
-0.255177
-0.25884
-0.262121
-0.264299
-0.264624
-0.262607
-0.258242
-0.252082
-0.245118
-0.238484
-0.233108
-0.229435
-0.227336
-0.226219
-0.225307
-0.223929
-0.22173
-0.218743
-0.215293
-0.211787
-0.208455
-0.205307
-0.202227
-0.199123
-0.195978
-0.192795
-0.189595
-0.186405
-0.18326
-0.180201
-0.177258
-0.17445
-0.17179
-0.169284
-0.166932
-0.164739
-0.16272
-0.160886
-0.159253
-0.157843
-0.156676
-0.155765
-0.155102
-0.154666
-0.154436
-0.154394
-0.154523
-0.154808
-0.155231
-0.155782
-0.15646
-0.157261
-0.158185
-0.159241
-0.160446
-0.161811
-0.163329
-0.164954
-0.166584
-0.168085
-0.1693
-0.170082
-0.170307
-0.169906
-0.168885
-0.167314
-0.165316
-0.163018
-0.160498
-0.157733
-0.154535
-0.150497
-0.144978
-0.137165
-0.126193
-0.111249
-0.09165
-0.066888
-0.036661
-0.000884
0.040301
0.086513
0.137073
0.19094
0.246661
0.302401
0.356063
0.405495
0.44874
0.484265
0.511146
0.529117
0.53851
0.540105
0.53493
0.524081
0.508592
0.489362
0.46711
0.442386
0.415617
0.387188
0.357495
0.326957
0.295995
0.265023
0.234432
0.204572
0.175733
0.14815
0.122002
0.09743
0.074548
0.053447
0.034194
0.016831
0.001374
-0.012205
-0.023984
-0.034085
-0.042674
-0.049951
-0.056149
-0.061547
-0.066478
-0.071327
-0.07651
-0.082446
-0.089511
-0.097993
-0.108061
-0.119723
-0.132809
-0.146974
-0.161728
-0.176474
-0.190583
-0.203463
-0.214633
-0.223776
-0.230751
-0.235576
-0.238382
-0.239373
-0.238768
-0.236772
-0.233544
-0.229198
-0.223827
-0.217518
-0.21038
-0.202546
-0.19418
-0.185473
-0.176639
-0.167915
-0.159548
-0.151768
-0.144766
-0.13869
-0.133637
-0.129662
-0.126793
-0.125043
-0.124424
-0.124941
-0.126576
-0.12928
-0.132967
-0.137525
-0.142824
-0.148729
-0.155123
-0.161919
-0.169057
-0.176479
-0.184103
-0.191822
-0.19949
-0.206883
-0.21378
-0.220121
-0.226094
-0.232032
-0.238161
-0.244392
-0.250253
-0.254985
-0.257792
-0.258143
-0.256012
-0.251936
-0.246881
-0.241946
-0.238028
-0.235562
-0.234446
-0.23415
-0.233972
-0.233319
-0.231889
-0.229714
-0.227083
-0.224344
-0.221697
-0.219151
-0.216641
-0.214145
-0.211699
-0.209324
-0.207012
-0.204728
-0.202425
-0.200072
-0.197655
-0.195179
-0.192661
-0.19013
-0.187614
-0.185142
-0.182742
-0.18042
-0.178172
-0.175992
-0.173878
-0.171846
-0.169914
-0.168104
-0.166442
-0.164958
-0.163667
-0.16257
-0.161666
-0.160959
-0.160463
-0.1602
-0.160179
-0.160392
-0.160808
-0.161377
-0.162039
-0.162738
-0.163443
-0.164156
-0.164921
-0.165806
-0.166875
-0.16816
-0.169654
-0.171319
-0.173082
-0.174852
-0.17653
-0.178016
-0.179211
-0.180019
-0.180349
-0.180134
-0.179344
-0.177996
-0.176164
-0.173949
-0.171438
-0.168639
-0.165417
-0.16143
-0.156112
-0.148715
-0.138413
-0.124399
-0.105966
-0.082559
-0.053813
-0.019583
0.020047
0.064742
0.11387
0.166423
0.220985
0.275753
0.328649
0.377518
0.420391
0.45573
0.482612
0.500785
0.510601
0.512857
0.50858
0.498822
0.484532
0.4665
0.445355
0.421611
0.395726
0.368157
0.339373
0.309829
0.279935
0.250035
0.220421
0.191344
0.163035
0.135715
0.109611
0.084943
0.061915
0.04069
0.021368
0.003971
-0.011541
-0.025257
-0.037295
-0.047798
-0.056935
-0.064908
-0.071943
-0.078301
-0.08428
-0.090222
-0.096501
-0.103504
-0.111587
-0.121027
-0.131973
-0.144403
-0.158083
-0.172572
-0.187257
-0.201443
-0.214456
-0.225729
-0.234876
-0.241735
-0.246342
-0.248871
-0.249566
-0.248669
-0.246383
-0.242857
-0.238193
-0.23246
-0.225729
-0.218093
-0.209688
-0.200699
-0.191353
-0.181899
-0.172588
-0.163661
-0.155327
-0.147756
-0.141072
-0.135364
-0.130703
-0.127143
-0.124728
-0.123492
-0.123462
-0.124636
-0.126972
-0.130396
-0.13476
-0.139835
-0.14541
-0.151438
-0.158081
-0.165563
-0.173913
-0.182826
-0.191648
-0.199524
-0.205659
-0.209611
-0.211476
-0.211892
-0.211841
-0.212324
-0.214034
-0.217149
-0.221316
-0.225831
-0.229922
-0.233036
-0.234982
-0.23593
-0.236256
-0.236299
-0.23619
-0.235865
-0.235214
-0.234197
-0.23284
-0.231181
-0.229274
-0.227178
-0.22494
-0.222593
-0.22016
-0.217668
-0.215145
-0.21262
-0.210114
-0.207636
-0.205189
-0.202778
-0.200409
-0.198081
-0.195788
-0.193517
-0.191245
-0.188943
-0.186591
-0.184186
-0.181752
-0.179328
-0.176954
-0.174665
-0.172478
-0.170409
-0.168474
-0.166687
-0.165063
-0.163621
-0.162379
-0.161348
-0.160527
-0.159899
-0.159438
-0.159119
-0.158929
-0.158877
-0.158973
-0.15923
-0.159653
-0.160238
-0.160971
-0.161834
-0.162814
-0.163904
-0.165094
-0.166366
-0.167695
-0.16906
-0.170451
-0.171869
-0.173307
-0.174745
-0.17614
-0.177437
-0.178575
-0.179486
-0.18011
-0.180401
-0.180334
-0.179909
-0.179153
-0.178115
-0.176856
-0.17543
-0.173833
-0.171936
-0.169428
-0.165787
-0.160305
-0.152164
-0.140535
-0.124686
-0.104051
-0.078266
-0.047175
-0.010811
0.030616
0.076679
0.126638
0.179362
0.23329
0.286477
0.336737
0.381903
0.420109
0.450036
0.47105
0.483208
0.487141
0.483865
0.47456
0.460391
0.442372
0.421297
0.397743
0.372122
0.344755
0.315942
0.285998
0.255256
0.224066
0.192803
0.161843
0.131537
0.102193
0.074058
0.047315
0.022107
-0.00144
-0.023193
-0.043007
-0.060743
-0.076311
-0.089701
-0.101026
-0.110518
-0.118513
-0.125428
-0.131729
-0.137891
-0.144349
-0.151463
-0.159489
-0.168545
-0.178593
-0.18943
-0.200686
-0.211861
-0.222385
-0.231694
-0.239307
-0.244885
-0.248257
-0.249413
-0.248465
-0.245605
-0.241051
-0.235026
-0.227737
-0.219367
-0.210073
-0.199994
-0.189273
-0.178081
-0.166625
-0.15514
-0.143881
-0.133089
-0.122982
-0.113736
-0.105437
-0.098058
-0.091587
-0.086183
-0.082213
-0.080101
-0.080057
-0.081918
-0.085126
-0.088869
-0.09235
-0.09507
-0.097024
-0.098713
-0.100962
-0.104618
-0.110229
-0.11785
-0.127037
-0.137011
-0.146936
-0.156186
-0.164491
-0.171939
-0.17882
-0.185388
-0.191686
-0.197585
-0.202926
-0.207626
-0.211668
-0.215047
-0.217774
-0.219873
-0.221385
-0.222362
-0.222855
-0.222916
-0.222591
-0.221926
-0.220958
-0.21972
-0.218238
-0.216537
-0.214645
-0.21259
-0.2104
-0.208106
-0.205737
-0.203319
-0.200875
-0.198424
-0.195988
-0.19359
-0.191254
-0.189002
-0.186859
-0.184853
-0.183007
-0.181331
-0.179812
-0.178416
-0.177099
-0.175818
-0.174544
-0.173273
-0.172018
-0.170814
-0.169702
-0.168718
-0.167879
-0.167175
-0.166583
-0.166075
-0.165627
-0.165217
-0.164834
-0.164474
-0.164151
-0.163904
-0.163788
-0.163866
-0.1642
-0.164832
-0.165768
-0.166951
-0.168268
-0.169554
-0.170617
-0.171267
-0.171356
-0.170795
-0.169584
-0.167809
-0.165612
-0.163166
-0.160625
-0.158076
-0.155483
-0.152633
-0.149124
-0.144371
-0.137666
-0.128239
-0.115329
-0.098244
-0.076394
-0.049331
-0.016803
0.021155
0.064126
0.11121
0.160993
0.211589
0.260803
0.306385
0.346326
0.379127
0.403968
0.420741
0.429946
0.432477
0.429381
0.42164
0.41005
0.395188
0.377462
0.357185
0.334657
0.310219
0.284258
0.25719
0.229438
0.2014
0.173427
0.145807
0.11877
0.092507
0.067178
0.042939
0.019944
-0.001656
-0.021723
-0.040154
-0.056888
-0.07192
-0.085293
-0.097105
-0.107517
-0.116752
-0.125095
-0.132877
-0.140466
-0.148239
-0.15655
-0.165668
-0.175726
-0.186679
-0.198288
-0.210136
-0.221684
-0.232342
-0.241555
-0.248885
-0.254054
-0.25695
-0.257611
-0.25619
-0.2529
-0.24798
-0.241669
-0.234174
-0.225681
-0.216361
-0.206383
-0.195922
-0.185156
-0.174271
-0.163461
-0.152922
-0.142849
-0.133417
-0.124783
-0.117098
-0.110469
-0.10491
-0.10042
-0.097115
-0.095289
-0.095275
-0.097196
-0.100803
-0.10546
-0.110295
-0.11447
-0.11747
-0.119305
-0.120532
-0.122069
-0.124872
-0.1296
-0.136392
-0.144841
-0.154151
-0.163426
-0.171946
-0.179347
-0.185645
-0.191132
-0.196148
-0.200859
-0.205254
-0.209255
-0.212833
-0.216008
-0.218786
-0.221163
-0.223127
-0.224661
-0.225756
-0.226401
-0.226606
-0.226402
-0.225827
-0.224932
-0.223767
-0.222373
-0.220787
-0.219037
-0.217135
-0.215071
-0.212818
-0.210353
-0.207679
-0.204826
-0.20185
-0.198812
-0.195773
-0.192788
-0.189896
-0.18711
-0.184427
-0.181825
-0.179278
-0.176764
-0.174284
-0.171873
-0.169594
-0.167509
-0.16566
-0.164051
-0.162645
-0.161381
-0.160203
-0.159077
-0.157997
-0.156988
-0.156098
-0.155384
-0.154904
-0.154682
-0.154703
-0.154923
-0.155284
-0.155737
-0.156248
-0.156818
-0.15748
-0.158284
-0.159263
-0.16042
-0.161718
-0.163074
-0.164355
-0.165398
-0.166039
-0.166142
-0.165633
-0.164517
-0.162867
-0.160809
-0.158464
-0.155883
-0.152989
-0.149537
-0.145082
-0.138993
-0.130513
-0.118825
-0.103107
-0.082581
-0.056565
-0.024562
0.013622
0.05772
0.106857
0.159494
0.213491
0.266318
0.315388
0.358446
0.393898
0.420986
0.439779
0.450983
0.455655
0.454903
0.449673
0.440644
0.42825
0.412781
0.394499
0.373713
0.350809
0.326233
0.300452
0.273916
0.247015
0.22006
0.193299
0.166942
0.141188
0.116243
0.092307
0.069577
0.048238
0.028451
0.010338
-0.006035
-0.020655
-0.033559
-0.044826
-0.054574
-0.062965
-0.070202
-0.076536
-0.082248
-0.087662
-0.093132
-0.099031
-0.10572
-0.113509
-0.122613
-0.133102
-0.144866
-0.157617
-0.170906
-0.184181
-0.196857
-0.208391
-0.218336
-0.226378
-0.232353
-0.236239
-0.238127
-0.238189
-0.236637
-0.233689
-0.229545
-0.224362
-0.218255
-0.211301
-0.203572
-0.195171
-0.186248
-0.176997
-0.167655
-0.158475
-0.149637
-0.141259
-0.133523
-0.126763
-0.121418
-0.117815
-0.115977
-0.115539
-0.11582
-0.116036
-0.115588
-0.114306
-0.112543
-0.111077
-0.110856
-0.112665
-0.116871
-0.123298
-0.131311
-0.140048
-0.148712
-0.156799
-0.164164
-0.170969
-0.177498
-0.183915
-0.190191
-0.19619
-0.201792
-0.206948
-0.211617
-0.215757
-0.219325
-0.22229
-0.224644
-0.226407
-0.227613
-0.228298
-0.228489
-0.228216
-0.227512
-0.22642
-0.224995
-0.223299
-0.221391
-0.219327
-0.217156
-0.214908
-0.212589
-0.2102
-0.207746
-0.205243
-0.20271
-0.200167
-0.197635
-0.19513
-0.192663
-0.190234
-0.187839
-0.185478
-0.183162
-0.18091
-0.178744
-0.176689
-0.174763
-0.172977
-0.171327
-0.169804
-0.168389
-0.16707
-0.16585
-0.164742
-0.163765
-0.162934
-0.162262
-0.161761
-0.161437
-0.16128
-0.161268
-0.161379
-0.161595
-0.1619
-0.162277
-0.162713
-0.163208
-0.163777
-0.164458
-0.165291
-0.166313
-0.167536
-0.168937
-0.170454
-0.17198
-0.173387
-0.174547
-0.175362
-0.175772
-0.175744
-0.175264
-0.174342
-0.173011
-0.171319
-0.16932
-0.167047
-0.164471
-0.161454
-0.1577
-0.152728
-0.145886
-0.136387
-0.123367
-0.105945
-0.083301
-0.054773
-0.019997
0.020936
0.067358
0.117955
0.170805
0.223538
0.27362
0.318699
0.356949
0.387288
0.40944
0.423829
0.431342
0.433048
0.429955
0.422864
0.412323
0.398679
0.382179
0.363064
0.341628
0.318245
0.293347
0.267393
0.240827
0.214035
0.187318
0.160911
0.135009
0.109782
0.085401
0.062039
0.039876
0.019078
-0.000211
-0.017886
-0.033887
-0.048197
-0.060841
-0.071882
-0.081423
-0.089619
-0.096687
-0.102906
-0.108613
-0.114187
-0.12004
-0.126574
-0.134129
-0.142933
-0.15306
-0.164408
-0.176689
-0.189445
-0.202097
-0.214031
-0.22468
-0.233592
-0.240482
-0.245244
-0.247925
-0.248689
-0.247752
-0.245341
-0.241657
-0.236863
-0.231081
-0.224401
-0.216893
-0.208589
-0.199478
-0.189622
-0.179295
-0.169023
-0.159418
-0.150907
-0.143553
-0.13702
-0.130693
-0.123948
-0.116447
-0.108341
-0.100295
-0.093306
-0.0884
-0.086292
-0.087172
-0.090682
-0.096073
-0.102488
-0.10924
-0.115976
-0.122688
-0.129587
-0.136859
-0.144491
-0.152297
-0.160051
-0.167613
-0.174914
-0.181902
-0.18854
-0.194798
-0.200645
-0.206046
-0.210954
-0.215317
-0.219093
-0.222258
-0.224812
-0.22678
-0.22821
-0.229161
-0.229681
-0.229802
-0.229543
-0.228922
-0.227965
-0.226711
-0.2252
-0.223475
-0.221574
-0.219523
-0.217339
-0.215031
-0.212608
-0.210089
-0.207498
-0.204862
-0.202204
-0.199546
-0.196904
-0.194294
-0.191732
-0.189226
-0.186782
-0.18441
-0.182113
-0.179885
-0.177713
-0.175582
-0.173488
-0.17145
-0.169499
-0.167671
-0.166008
-0.16454
-0.16328
-0.162214
-0.161307
-0.160519
-0.159824
-0.159216
-0.158709
-0.158337
-0.158143
-0.158162
-0.158404
-0.158853
-0.159466
-0.160192
-0.161
-0.161878
-0.16284
-0.163913
-0.165121
-0.166475
-0.167966
-0.169561
-0.171201
-0.17282
-0.174352
-0.175733
-0.176914
-0.177853
-0.178519
-0.178902
-0.178994
-0.178789
-0.178286
-0.177493
-0.176433
-0.175139
-0.173621
-0.171819
-0.169548
-0.166462
-0.162041
-0.155603
-0.146349
-0.13343
-0.11602
-0.093373
-0.064888
-0.030209
0.010652
0.057176
0.108232
0.162059
0.216378
0.26862
0.316263
0.35719
0.389981
0.414061
0.429656
0.437599
0.439035
0.435133
0.426894
0.415045
0.400051
0.382198
0.36171
0.338832
0.313867
0.28718
0.259182
0.230301
0.200953
0.171521
0.142338
0.113681
0.085784
0.058838
0.033004
0.008422
-0.014776
-0.03646
-0.056497
-0.074771
-0.091203
-0.105766
-0.118499
-0.12951
-0.138992
-0.147219
-0.154549
-0.161403
-0.168229
-0.175452
-0.183405
-0.192268
-0.202022
-0.212435
-0.223091
-0.233447
-0.242925
-0.250989
-0.257215
-0.261324
-0.263201
-0.262867
-0.26037
-0.25578
-0.249307
-0.241373
-0.232547
-0.223295
-0.213784
-0.203795
-0.192803
-0.180209
-0.165631
-0.14915
-0.131406
-0.113496
-0.096694
-0.082114
-0.070416
-0.061679
-0.055487
-0.051176
-0.048121
-0.045963
-0.044686
-0.04455
-0.045893
-0.048865
-0.053357
-0.059113
-0.065877
-0.073458
-0.081692
-0.090429
-0.099539
-0.108908
-0.118431
-0.128004
-0.137518
-0.146853
-0.155884
-0.164498
-0.172608
-0.180139
-0.187035
-0.193267
-0.198819
-0.203692
-0.207895
-0.211442
-0.214359
-0.216674
-0.218423
-0.219647
-0.220395
-0.220725
-0.220695
-0.220347
-0.219696
-0.218745
-0.217492
-0.215943
-0.214128
-0.212095
-0.209902
-0.207613
-0.205285
-0.202958
-0.20065
-0.198366
-0.196115
-0.193907
-0.191751
-0.189657
-0.187631
-0.185678
-0.183792
-0.181966
-0.1802
-0.178496
-0.176863
-0.175315
-0.173855
-0.172466
-0.171123
-0.169801
-0.168487
-0.167176
-0.165879
-0.164625
-0.163452
-0.162399
-0.161493
-0.160735
-0.160115
-0.159609
-0.159202
-0.158889
-0.158685
-0.158632
-0.158786
-0.159187
-0.159839
-0.160691
-0.161648
-0.162586
-0.16337
-0.163873
-0.16398
-0.163606
-0.162716
-0.161331
-0.159525
-0.157407
-0.155096
-0.15266
-0.150043
-0.147006
-0.1431
-0.137687
-0.129995
-0.11919
-0.10446
-0.085068
-0.060415
-0.03009
0.006045
0.047749
0.094276
0.14431
0.195975
0.246997
0.294957
0.337619
0.37324
0.400781
0.419972
0.431224
0.435431
0.433696
0.427084
0.416477
0.402513
0.38561
0.366053
0.344077
0.319947
0.29398
0.266556
0.238089
0.209002
0.17969
0.150501
0.121729
0.09362
0.06638
0.040182
0.015172
-0.008527
-0.030815
-0.051609
-0.070839
-0.088444
-0.104372
-0.118602
-0.131168
-0.142186
-0.151876
-0.160549
-0.168592
-0.176428
-0.184456
-0.192987
-0.202188
-0.212041
-0.222346
-0.232734
-0.242728
-0.251808
-0.259493
-0.265399
-0.269275
-0.27101
-0.270605
-0.268162
-0.263842
-0.257764
-0.250025
-0.240824
-0.23056
-0.219779
-0.208938
-0.198212
-0.187398
-0.175999
-0.16344
-0.149369
-0.133894
-0.117669
-0.101783
-0.087472
-0.075763
-0.067202
-0.061747
-0.058874
-0.057831
-0.057929
-0.058765
-0.060277
-0.06268
-0.066266
-0.07115
-0.077206
-0.084174
-0.091812
-0.099951
-0.108449
-0.117167
-0.125979
-0.134767
-0.143425
-0.151866
-0.160012
-0.167805
-0.175199
-0.182162
-0.188669
-0.194692
-0.200205
-0.205186
-0.20963
-0.213543
-0.216943
-0.219849
-0.222284
-0.22428
-0.225868
-0.227077
-0.227922
-0.228413
-0.228557
-0.228358
-0.227822
-0.226965
-0.225814
-0.224401
-0.222759
-0.220917
-0.218902
-0.216736
-0.214441
-0.212039
-0.209542
-0.20696
-0.2043
-0.201577
-0.198808
-0.196005
-0.193169
-0.190299
-0.187398
-0.18448
-0.181566
-0.178686
-0.175878
-0.173189
-0.170665
-0.168338
-0.166216
-0.164291
-0.162538
-0.160928
-0.159433
-0.158043
-0.156763
-0.155622
-0.15465
-0.153864
-0.153272
-0.152872
-0.15266
-0.15263
-0.15277
-0.153062
-0.153485
-0.154029
-0.154696
-0.155496
-0.156449
-0.157575
-0.15888
-0.160348
-0.16192
-0.163496
-0.164944
-0.166116
-0.16687
-0.167087
-0.166696
-0.165701
-0.164166
-0.162192
-0.159866
-0.157202
-0.154079
-0.150177
-0.144972
-0.13777
-0.127763
-0.114101
-0.095979
-0.072695
-0.043689
-0.008581
0.032755
0.080075
0.132625
0.189039
0.247333
0.305032
0.359432
0.407963
0.448566
0.479976
0.501831
0.514602
0.519351
0.517417
0.510104
0.498476
0.483281
0.46498
0.443859
0.420167
0.394214
0.366398
0.337182
0.307056
0.276491
0.245905
0.215641
0.185966
0.157093
0.129202
0.102467
0.077059
0.053143
0.030876
0.01039
-0.008222
-0.024919
-0.039714
-0.052666
-0.063878
-0.073494
-0.081691
-0.088686
-0.094735
-0.100128
-0.105198
-0.110314
-0.115857
-0.122207
-0.129692
-0.138549
-0.148872
-0.16057
-0.173333
-0.186659
-0.199903
-0.212304
-0.223106
-0.231761
-0.238115
-0.242415
-0.245081
-0.246418
-0.246412
-0.244698
-0.240706
-0.233932
-0.224222
-0.211945
-0.197965
-0.183433
-0.169462
-0.15683
-0.145812
-0.136208
-0.127534
-0.119307
-0.111269
-0.103489
-0.096322
-0.090234
-0.085559
-0.082393
-0.080651
-0.080217
-0.081023
-0.083026
-0.086169
-0.090374
-0.095538
-0.101539
-0.108241
-0.115502
-0.123183
-0.13115
-0.139285
-0.14748
-0.155637
-0.16367
-0.171502
-0.179069
-0.186318
-0.19321
-0.199713
-0.205795
-0.211423
-0.216566
-0.221192
-0.225274
-0.228787
-0.231712
-0.234042
-0.235786
-0.236966
-0.237613
-0.237765
-0.23747
-0.236778
-0.235738
-0.234401
-0.23281
-0.230996
-0.22898
-0.226787
-0.224446
-0.22199
-0.219453
-0.216865
-0.214239
-0.211569
-0.208844
-0.20605
-0.203178
-0.200234
-0.19724
-0.194224
-0.191218
-0.188262
-0.185384
-0.182607
-0.179955
-0.177446
-0.175091
-0.172897
-0.170865
-0.168989
-0.167258
-0.165663
-0.164208
-0.162898
-0.161739
-0.160734
-0.15988
-0.159166
-0.158579
-0.158117
-0.157791
-0.157623
-0.15764
-0.157864
-0.158297
-0.158922
-0.159707
-0.160607
-0.16158
-0.162606
-0.163683
-0.164825
-0.166054
-0.167384
-0.168819
-0.170349
-0.171953
-0.173592
-0.175208
-0.17672
-0.178038
-0.179061
-0.179687
-0.17982
-0.179394
-0.178399
-0.176887
-0.174945
-0.172658
-0.17005
-0.167021
-0.16329
-0.158367
-0.151573
-0.142117
-0.129184
-0.112011
-0.089949
-0.062498
-0.029339
0.009642
0.054298
0.104122
0.158149
0.214882
0.272311
0.328046
0.379589
0.424674
0.461571
0.489302
0.5077
0.517312
0.519173
0.51452
0.504543
0.490231
0.472328
0.451375
0.42778
0.401902
0.374114
0.344823
0.314447
0.283393
0.252036
0.220724
0.18978
0.159512
0.130217
0.102159
0.075564
0.050611
0.027433
0.006114
-0.013318
-0.030881
-0.046613
-0.060564
-0.072799
-0.083399
-0.092479
-0.10021
-0.106833
-0.11265
-0.117966
-0.123148
-0.12872
-0.135358
-0.143714
-0.154118
-0.166394
-0.179809
-0.193225
-0.205398
-0.215325
-0.222517
-0.227077
-0.229585
-0.230829
-0.231493
-0.231921
-0.232024
-0.231381
-0.229467
-0.225893
-0.220563
-0.213687
-0.205677
-0.196941
-0.187706
-0.178051
-0.168037
-0.157819
-0.147635
-0.137731
-0.128342
-0.119668
-0.111873
-0.105082
-0.099387
-0.094853
-0.091511
-0.089364
-0.088395
-0.088581
-0.089897
-0.09231
-0.095766
-0.100196
-0.105518
-0.111635
-0.118418
-0.125718
-0.133377
-0.141245
-0.149192
-0.157118
-0.164944
-0.172604
-0.180044
-0.187206
-0.194021
-0.200418
-0.206331
-0.211709
-0.216523
-0.220768
-0.22446
-0.227628
-0.230307
-0.232527
-0.234299
-0.235621
-0.236483
-0.236884
-0.236837
-0.236372
-0.235529
-0.234357
-0.232906
-0.231226
-0.229359
-0.227333
-0.22516
-0.22285
-0.220408
-0.217837
-0.215142
-0.212341
-0.209463
-0.206547
-0.203636
-0.200763
-0.197953
-0.195222
-0.192578
-0.190019
-0.187538
-0.185118
-0.182748
-0.180436
-0.178202
-0.176076
-0.174091
-0.172274
-0.170641
-0.169185
-0.167874
-0.166671
-0.165551
-0.164515
-0.163581
-0.162782
-0.162158
-0.161743
-0.161544
-0.161538
-0.161671
-0.161888
-0.162147
-0.16244
-0.162782
-0.163209
-0.163755
-0.164447
-0.165302
-0.16632
-0.167479
-0.168748
-0.170089
-0.171454
-0.172783
-0.174008
-0.175053
-0.17585
-0.176335
-0.17645
-0.176155
-0.17544
-0.174335
-0.172902
-0.17119
-0.169213
-0.166892
-0.164005
-0.160133
-0.154646
-0.146743
-0.135553
-0.120253
-0.100153
-0.074777
-0.043897
-0.007539
0.03402
0.080251
0.130324
0.183057
0.23689
0.289932
0.340083
0.385271
0.423706
0.454107
0.47586
0.489028
0.494237
0.492457
0.484764
0.47215
0.45542
0.435189
0.411924
0.386014
0.357839
0.327823
0.296427
0.264116
0.231326
0.198446
0.165815
0.133736
0.102491
0.072344
0.043538
0.016292
-0.009212
-0.03283
-0.054432
-0.073849
-0.090967
-0.105868
-0.118889
-0.130496
-0.141049
-0.150642
-0.15908
-0.165994
-0.171077
-0.174337
-0.176253
-0.177738
-0.179915
-0.18378
-0.189862
-0.198029
-0.207501
-0.217077
-0.225487
-0.23173
-0.235286
-0.236141
-0.234641
-0.231239
-0.226262
-0.219888
-0.212251
-0.203534
-0.193953
-0.183699
-0.172936
-0.161804
-0.150426
-0.138923
-0.127444
-0.116165
-0.105275
-0.094976
-0.085462
-0.076914
-0.069491
-0.063325
-0.058514
-0.055115
-0.053146
-0.052595
-0.053418
-0.055554
-0.058935
-0.063488
-0.069128
-0.075751
-0.08323
-0.091411
-0.100131
-0.109226
-0.118539
-0.127916
-0.137218
-0.146327
-0.15514
-0.163563
-0.171508
-0.178906
-0.185707
-0.191887
-0.197439
-0.202366
-0.206675
-0.21038
-0.213493
-0.216032
-0.218027
-0.219519
-0.220562
-0.221216
-0.22153
-0.221527
-0.22121
-0.220568
-0.219588
-0.218261
-0.21659
-0.2146
-0.212344
-0.209897
-0.207334
-0.204716
-0.202083
-0.199454
-0.196833
-0.194211
-0.191588
-0.188975
-0.186401
-0.183905
-0.181521
-0.179272
-0.177163
-0.175186
-0.173327
-0.171557
-0.169845
-0.168174
-0.166545
-0.164977
-0.163503
-0.162164
-0.160994
-0.160029
-0.159286
-0.158755
-0.1584
-0.158171
-0.158015
-0.157893
-0.15779
-0.157726
-0.157745
-0.15791
-0.15829
-0.158928
-0.15983
-0.160967
-0.162283
-0.163699
-0.165117
-0.16643
-0.167535
-0.168337
-0.168754
-0.168737
-0.168267
-0.167358
-0.166056
-0.164438
-0.162589
-0.160559
-0.158312
-0.155663
-0.15223
-0.147409
-0.140422
-0.130421
-0.116606
-0.098312
-0.07507
-0.046639
-0.013022
0.025521
0.068476
0.115058
0.164179
0.214437
0.264147
0.311449
0.354476
0.391567
0.421457
0.443407
0.457234
0.463255
0.462161
0.45485
0.442262
0.425282
0.404685
0.381111
0.355069
0.326978
0.297221
0.266194
0.234317
0.202028
0.169741
0.137835
0.106628
0.076373
0.047257
0.019419
-0.007034
-0.031988
-0.055318
-0.076895
-0.096612
-0.114332
-0.129933
-0.143461
-0.155253
-0.165913
-0.176078
-0.186176
-0.196274
-0.206082
-0.215098
-0.222833
-0.22903
-0.233778
-0.237485
-0.240706
-0.243891
-0.247167
-0.250246
-0.252509
-0.253221
-0.251777
-0.247891
-0.241647
-0.233444
-0.223811
-0.21317
-0.201741
-0.189638
-0.176998
-0.164031
-0.150968
-0.138017
-0.125361
-0.11317
-0.101607
-0.09084
-0.081034
-0.072342
-0.064901
-0.058824
-0.054189
-0.051029
-0.049332
-0.049054
-0.050128
-0.052471
-0.055991
-0.060581
-0.066129
-0.072517
-0.079628
-0.087338
-0.095522
-0.104052
-0.1128
-0.121638
-0.130442
-0.139089
-0.147474
-0.155523
-0.163198
-0.170479
-0.177348
-0.183784
-0.189754
-0.195222
-0.200158
-0.20454
-0.20837
-0.211675
-0.2145
-0.2169
-0.218913
-0.220556
-0.221831
-0.222729
-0.22325
-0.223404
-0.223221
-0.222744
-0.22201
-0.221038
-0.219819
-0.218334
-0.216573
-0.214549
-0.212295
-0.209858
-0.207288
-0.204626
-0.201904
-0.199141
-0.196354
-0.193553
-0.19075
-0.18796
-0.185194
-0.182456
-0.179752
-0.177095
-0.174503
-0.171992
-0.169582
-0.167297
-0.165156
-0.163173
-0.161351
-0.159687
-0.158182
-0.156848
-0.155703
-0.154756
-0.154002
-0.153417
-0.152963
-0.152603
-0.152312
-0.152086
-0.151938
-0.1519
-0.152014
-0.15231
-0.152796
-0.15347
-0.154326
-0.155355
-0.156539
-0.157831
-0.159147
-0.160361
-0.161317
-0.161846
-0.161807
-0.161128
-0.159826
-0.158007
-0.155815
-0.153372
-0.150691
-0.147607
-0.143726
-0.138407
-0.130827
-0.120105
-0.105422
-0.086096
-0.061618
-0.031666
0.003869
0.044865
0.090947
0.14143
0.195248
0.25091
0.306523
0.359914
0.408851
0.451321
0.485789
0.511378
0.527921
0.53588
0.536171
0.529925
0.518278
0.502227
0.482567
0.459893
0.434647
0.407189
0.377884
0.347148
0.315442
0.283228
0.250929
0.218922
0.187537
0.157059
0.127732
0.099778
0.073391
0.048741
0.025971
0.005179
-0.013591
-0.030294
-0.044873
-0.057359
-0.067981
-0.077176
-0.085414
-0.092988
-0.099896
-0.105864
-0.110516
-0.113633
-0.115379
-0.116406
-0.117778
-0.1207
-0.126148
-0.134543
-0.145597
-0.158374
-0.171545
-0.183765
-0.193987
-0.201659
-0.206744
-0.209568
-0.210543
-0.209969
-0.208032
-0.204877
-0.200669
-0.195552
-0.189614
-0.182903
-0.175455
-0.167333
-0.158644
-0.149549
-0.140253
-0.131002
-0.12205
-0.11364
-0.105981
-0.099236
-0.09351
-0.08886
-0.085318
-0.08289
-0.081575
-0.081372
-0.082282
-0.084293
-0.087378
-0.091479
-0.096509
-0.102357
-0.108893
-0.115972
-0.123442
-0.131159
-0.139005
-0.146882
-0.154702
-0.162385
-0.169858
-0.177054
-0.183918
-0.190402
-0.196468
-0.202084
-0.207229
-0.211886
-0.216043
-0.219687
-0.22281
-0.225416
-0.227522
-0.229153
-0.230344
-0.231122
-0.231512
-0.231531
-0.231194
-0.230522
-0.229553
-0.228327
-0.226881
-0.225238
-0.22341
-0.221401
-0.219213
-0.216849
-0.214317
-0.211634
-0.208824
-0.205915
-0.202942
-0.199935
-0.196916
-0.19391
-0.190942
-0.188038
-0.18521
-0.182462
-0.179798
-0.17722
-0.174743
-0.172387
-0.170177
-0.168137
-0.16628
-0.164609
-0.16312
-0.161806
-0.160665
-0.159703
-0.158937
-0.158386
-0.158057
-0.157941
-0.158015
-0.158247
-0.15859
-0.158999
-0.159452
-0.159953
-0.160527
-0.161204
-0.162015
-0.162985
-0.164133
-0.165462
-0.166948
-0.168537
-0.170152
-0.171699
-0.173079
-0.174193
-0.174949
-0.175267
-0.175086
-0.174381
-0.173158
-0.171459
-0.169344
-0.166866
-0.164021
-0.160661
-0.156435
-0.150771
-0.142913
-0.132014
-0.117232
-0.097819
-0.073204
-0.043041
-0.00723
0.034079
0.080449
0.131101
0.184844
0.240065
0.29479
0.346842
0.394078
0.434651
0.46723
0.491133
0.506336
0.513362
0.513085
0.506529
0.494706
0.478526
0.458745
0.435968
0.410677
0.383287
0.354204
0.323828
0.292561
0.260795
0.228926
0.197343
0.166408
0.136437
0.10775
0.080664
0.055397
0.03195
0.010105
-0.010396
-0.029609
